848.8714285714286,40.74675146685979,-0.6437004349400723,0.21497157962026314,14.285714285714285,14.285714285714285,70.85128026450217,3.532624031089859,0.9129911658910498,0.7083989813128357,13.571428571428571,12.142857142857142,4.5208759585477445,9.041930041669746,9.042464406725834,9.043354986264356,9.044601736954837,4.5208759585477445,9.144112774481586,9.448338186988861,9.945965348585847,10.623246684577195,11.461667800165598,12.438638221884005,13.528322863635688,14.70257613046931,15.931936631376644,17.186638781759864
849.3626373626373,51.465664748348225,-1.4910392195282907,1.3362596948427816,8.791208791208792,15.384615384615385,70.92881970042762,4.756990933251209,1.6961748655079436,1.9166294944822617,15.384615384615385,3.296703296703297,4.8182769277521595,9.63678736228629,9.63748787045064,9.638655343453406,9.640289720390975,4.8182769277521595,9.770718001569051,10.169196083817114,10.820107111917874,11.704181630009247,12.795532256290096,14.062678595950706,15.469776452141655,16.97799205517729,18.546956186448107,20.136230861467325
839.4868421052631,42.510522976222155,-0.10702071431259032,-0.18883031749983115,14.473684210526317,11.842105263157894,71.65786633691665,3.6746929050577415,0.39205777420633864,0.10012919124469466,11.842105263157894,14.473684210526317,3.1645401312306487,6.329208987412952,6.329595155929959,6.330238748998943,6.33113973493237,3.1645401312306487,6.4030511340062475,6.622874619375043,6.982364658555188,7.4714783189594804,8.076703032857816,8.781572495568005,9.567286788169502,10.413407743187554,11.298597633034065,12.201368060783942
860.6228070175439,32.259471708750446,-1.0295718318356284,1.0598569339246673,13.157894736842104,13.157894736842104,69.81930045695978,2.734571812992657,1.2668944177512849,1.7405851569968585,13.157894736842104,11.403508771929824,6.340923771939887,12.682131386050186,12.682982897007017,12.684402030088403,12.686388707528085,6.340923771939887,12.844911918054562,13.328979662922762,14.11888425071376,15.190036378960057,16.509420401512628,18.03691960410383,19.726905450827996,21.530013970566262,23.39502483228647,25.27075573007252
870.0,37.70253195782127,-1.0182500316258551,1.6066717596663356,13.740458015267176,13.740458015267176,69.10200939217133,3.158049569634127,1.3796175548525484,2.7601760967295625,12.213740458015266,12.977099236641221,6.967619233552679,13.93551808938181,13.93635694239079,13.93775498467228,13.939712147129319,6.967619233552679,14.095919933176244,14.573407723494276,15.354202753808792,16.41636786145694,17.730342819260475,19.260032930728535,20.96412214701006,22.797552206745372,24.713102909910273,26.66300557887431
881.8676470588235,45.351536847869525,-0.8105205666154016,0.07693607543400516,16.176470588235293,14.705882352941178,68.2264668814294,3.6832931684926367,1.0352116358358459,0.4936014872732257,14.705882352941178,14.705882352941178,6.282831087694228,12.56588952939254,12.56657157967734,12.567708291061436,12.569299604911683,6.282831087694228,12.696294824425275,13.084327172209203,13.718313080899783,14.579670671609446,15.643400111759554,16.879040459119953,18.251820724855875,19.72395187861366,21.256000974069632,22.808286173678876
829.1889763779527,39.5629135738037,-0.866885080211096,0.880660129728096,18.11023622047244,10.236220472440944,72.53301975938525,3.638705869134382,1.1890461987820828,1.674983897870959,10.236220472440944,13.385826771653544,3.273615826384473,6.547371665227082,6.5477916950885255,6.5484917198149075,6.549471701844156,3.273615826384473,6.627671765021591,6.866517214346973,7.2564489622448995,7.7856151272620195,8.4381316294294,9.194746040242014,10.033630317630038,10.93126199049531,11.863349658036267,12.805757563147912
857.7333333333333,34.984377465758435,-0.8716862039087742,0.6805596388893425,13.333333333333334,12.222222222222221,70.07308986698655,2.9784056537201264,1.1108615065749459,1.1439519481538394,12.222222222222221,12.222222222222221,6.825483244985291,13.651236722939052,13.652047408534846,13.6533985068302,13.6552899512816,6.825483244985291,13.806253793276255,14.267727478193857,15.022387242381482,16.049106273516493,17.319415766733243,18.798552650067972,20.446723191025935,22.220526084581046,24.074472509418534,25.962537755065494
896.2111111111111,37.49058976580195,-1.2980912402349856,1.5317826734986815,13.333333333333334,11.11111111111111,67.0730645594202,2.9825609546315386,1.5375781609212498,2.2170564921037395,11.11111111111111,10.0,5.378794061538823,10.75783486522191,10.758575077586187,10.759808717965845,10.761535716023356,5.378794061538823,10.899323850307518,11.319896198743866,12.005595888618442,12.93421490608403,14.075973453084599,15.394751295990462,16.849561836424773,18.396195976376198,19.988955790829237,21.58239548889495
816.2790697674419,39.478770027137344,-0.48135493001325924,-0.3728435542345254,15.503875968992247,17.05426356589147,73.68131823527905,3.666569795249386,0.6791476459571512,-0.2404566336295515,16.27906976744186,14.728682170542637,5.799203474335706,11.598614608932184,11.59923757948941,11.600275829668558,11.601729308347654,5.799203474335706,11.717737410077634,12.072358254842456,12.652288358243421,13.44132117870518,14.417646025642656,15.554675651290683,16.822040884894786,18.186705736379245,19.61415169838856,21.069578083093283
816.1190476190476,40.659856405335404,-0.17974758873306657,-0.7724416224153088,16.666666666666664,19.047619047619047,73.70383714789301,3.7218755547956803,0.358213133529216,-0.6930396239157997,17.857142857142858,16.666666666666664,4.519475118703936,9.039162155614974,9.03979789995945,9.040857439611518,9.042340723190465,4.519475118703936,9.160731838154081,9.522688348001383,10.114781926401301,10.920700407447587,11.918463370690942,13.081231219583836,14.37828043990885,15.776101209591957,17.239568864757924,18.733138599709548
852.3089430894308,37.04932552216258,0.22026804309196893,-0.23471899038001354,17.073170731707318,14.634146341463413,70.52944136089224,3.0515293344310708,0.004668760453130297,-0.2465634040505722,14.634146341463413,17.073170731707318,5.919282904221836,11.838784831821691,11.839441891568226,11.840536956521259,11.842069974746568,5.919282904221836,11.964436930132104,12.338625167017438,12.950981568815473,13.785006853690431,14.818454835995176,16.024138297860475,17.37090092644671,18.824712007110104,20.349835927632693,21.910026412865403
834.1267605633802,29.05067431641553,-0.5215770365613468,-0.30503060195258636,14.084507042253522,18.30985915492958,72.02064624698167,2.561523125518459,0.672038562752698,-0.11842458296710223,18.30985915492958,14.084507042253522,6.67832622872185,13.356893641755548,13.357617182400613,13.358823042508089,13.360511160629347,6.67832622872185,13.495235833901932,13.906934267702916,14.57974771457165,15.494185625989177,16.62400615141219,17.937202280041955,19.397189424932463,20.964140355940906,22.596407706511982,24.251971763946294
821.7123287671233,36.612550977737016,-0.16523511367060778,-0.49275720945511337,12.32876712328767,20.54794520547945,73.16501543097642,3.2985927305588176,0.35909344220283024,-0.4634383799377164,20.54794520547945,12.32876712328767,6.4240423589171485,12.848302230494948,12.848954758306371,12.850042270757422,12.851564716998263,6.4240423589171485,12.973091636822769,13.344758213869216,13.953142255865794,14.782069285073804,15.80970799136821,17.009340214573424,18.35029202686726,19.79898595869796,21.320069905963248,22.877575965308385
828.830985915493,19.233176966145482,0.4532198189726808,-0.49290437375482066,18.30985915492958,18.30985915492958,72.4297385002986,1.6649626491218013,-0.36435572852806664,-0.6025395055751859,18.30985915492958,18.30985915492958,4.070827325041133,8.141827896424061,8.142347626950604,8.14321381616606,8.144426421579153,4.070827325041133,8.241210273199268,8.537075365733632,9.0209514483548,9.679358867225817,10.494146202054925,11.44316980567932,12.501112083347312,13.640401190685495,14.832190912615768,16.04735775482038
865.9125,32.561170798206874,-0.8857971319010899,0.8429820605880542,15.0,13.750000000000002,69.39288649365884,2.711995489636888,1.1305963454845154,1.481816184408129,12.5,13.750000000000002,8.71995415574724,17.440334612629794,17.44161348757611,17.443744850956673,17.446728560484786,8.71995415574724,17.684673508070762,18.40960093429609,19.587026978232192,21.172290570965806,23.105815931057077,25.31586459379383,27.7218054654433,30.237725362740687,32.776187260478615,35.251940042523586
823.0438596491229,26.643649172804004,-0.16242544598078132,-0.5691208893171962,14.035087719298245,19.298245614035086,72.97711993338982,2.3802144760854627,0.2997925619282131,-0.4923917444472279,19.298245614035086,14.035087719298245,3.615805707752379,7.231768615424249,7.232240206904961,7.233026165114106,7.234126448665635,3.615805707752379,7.321930416729205,7.59016001274656,8.028230958139726,8.623065301499466,9.357112619315684,10.209062076344058,11.15469444781909,12.167831780251102,13.221338391304906,14.288125601796526
822.7196261682243,36.95230429057997,-0.29326935019058126,-1.0156551411355705,16.822429906542055,22.429906542056074,73.0785210400866,3.3352404613297333,0.41303299379062247,-0.9623645552915172,22.429906542056074,15.887850467289718,5.82249758014307,11.645210575558954,11.645856811356188,11.646933837614947,11.648441604232422,5.82249758014307,11.768798100691175,12.136901894378198,12.739509315614663,13.560679366458988,14.578891101556193,15.767798430250789,17.09714346424406,18.533789603880614,20.042831116371055,21.58873364484425
838.421768707483,46.78259534061408,-0.8316977680250727,0.04527406016266822,12.244897959183673,14.965986394557824,71.79851307293167,4.2296299464031435,1.0630901505410908,0.4709125561603269,14.285714285714285,12.244897959183673,4.244895992023457,8.489947653354879,8.49041465401032,8.491192964208338,8.492282547609047,4.244895992023457,8.579257145368453,8.845256150097747,9.280689088138235,9.874016988454226,10.60968863010044,11.468709901929683,12.42932943870296,13.46780933537948,14.559246518744178,15.678408977899968
830.6385542168674,26.91153661032733,0.04446400512568388,-0.787763351228377,18.072289156626507,15.66265060240964,72.30947318372917,2.3438630561506972,0.0750460606302663,-0.7445258691637995,15.66265060240964,18.072289156626507,3.65166427023725,7.303461913389929,7.30386202562844,7.304528857666983,7.305462376968736,3.65166427023725,7.3799719559628825,7.607757035747938,7.980331531435572,8.487381836981923,9.115029324968495,9.84635828739103,10.662050411961586,11.54109608271913,12.461549810990665,13.40129591286483
850.7881355932203,29.803552198397952,0.1044262891003629,-0.5353826133690385,15.254237288135593,19.491525423728813,70.60932917936852,2.4709864564198303,0.046145457565200894,-0.578633092207383,19.491525423728813,15.254237288135593,2.7095073725563767,5.419130339760396,5.419477117662814,5.420055060698859,5.420864138668146,2.7095073725563767,5.485430773473213,5.6826885952111175,6.004899840610707,6.442521100192947,6.982745304176524,7.610021674155687,8.306678264343207,9.053616388371683,9.83104328167147,10.619208317185635
858.109243697479,69.06820279436214,-6.114193988030268,47.02361670779905,0.0,4.201680672268908,71.0605751531648,15.187397473152428,9.574857761650877,95.62960827475914,1.680672268907563,0.0,6.30263367245493,12.605506886048703,12.606225497263146,12.607423141947844,12.609099759096468,6.30263367245493,12.742906696461981,13.151802472525702,13.820043264072861,14.728287449229429,15.850503922450276,17.154959839830447,18.60540938548883,20.16242887711595,21.784837794755937,23.431142794209578
848.7826086956521,43.62807883416281,-1.0027974652523195,0.7622019216256808,11.956521739130435,15.217391304347828,70.8879529050719,3.870979453937662,1.2863149086123398,1.4738253513814232,14.130434782608695,11.956521739130435,6.46698334884903,12.934206178611943,12.934924609688032,12.936121955930197,12.937798159014248,6.46698334884903,13.071586142881877,13.480598802079426,14.149614836199385,15.060134772377102,16.18725064938766,17.50058055014002,18.96539265788622,20.543866788432535,22.196436035525856,23.88314895827395
879.0169491525423,69.65179533997785,-5.132580674417061,31.45928218345224,0.847457627118644,6.779661016949152,69.05847118527525,10.398978330761308,6.783331894050626,47.153601660162316,1.694915254237288,0.0,5.634085746329713,11.268381256267912,11.269010536521334,11.270059301704388,11.271527498960571,5.634085746329713,11.388703922503831,11.746816507822913,12.33219123223285,13.128078457281646,14.111944788427534,15.2563359891104,16.529913873903293,17.898618483516632,19.32690192481901,20.778978271289095
834.6894409937888,55.147598228488086,-4.503858371260492,32.576126770484855,6.211180124223603,5.590062111801243,72.39156180240859,8.105717306203623,8.226475865374406,79.89420737486141,1.2422360248447204,0.6211180124223602,5.410113816011044,10.820399656939095,10.820915723750764,10.821775808639387,10.82297987191054,5.410113816011044,10.919095121329407,11.21307942191955,11.69442103920316,12.350499879371354,13.164289045407976,14.114961365535484,15.178621715724224,16.32913301395856,17.53900025217931,18.780275245692202
833.4454545454546,50.260337944028336,-1.8116629348550086,7.221555375673725,9.090909090909092,13.636363636363635,72.2947193786504,5.133934963793578,3.383435369402677,20.00112252889152,10.0,6.363636363636363,14.182164378229812,28.365616408305346,28.369479277946205,28.375917107699532,28.38492946811755,14.182164378229812,29.103649094852567,31.293329614535754,34.849825975482034,39.63815102335463,45.478012848249904,52.151939385263695,59.41495581222469,67.00530427576473,74.6556496377233,82.10420224585789
850.1894736842105,28.2806590918663,-1.4510456846773327,2.662140256750628,11.578947368421053,13.684210526315791,70.65490326562511,2.4809506860326636,1.7214060952292867,3.6828528640951506,12.631578947368421,8.421052631578947,6.959813174884597,13.919872338497882,13.920610292988973,13.921840178158298,13.92356193553466,6.959813174884597,14.060993472091189,14.481238594994354,15.168935307586484,16.105507479421796,17.265908637505614,18.619529435864262,20.131292398841598,21.762885314692085,23.474079412757153,25.22407600439883
857.6324786324786,28.93068589169765,-0.29587868232762865,-0.68239976484751,17.094017094017094,19.65811965811966,70.04065707034857,2.391641415578168,0.4224240722947302,-0.5636360909568374,19.65811965811966,17.094017094017094,4.55199722192961,9.10415641460907,9.104642319364126,9.105452135641274,9.106585825970265,4.55199722192961,9.197082998234679,9.47387730863996,9.9270536593074,10.544702882951825,11.310761717274811,12.205589128346956,13.206661814445177,14.289358167601607,15.427796648038951,16.595692963203188
842.4786324786324,43.80016748408799,-0.4211101266724454,-0.558122748419374,12.82051282051282,18.803418803418804,71.4164856507124,3.816487960244862,0.6255430772276408,-0.2772353721845864,17.94871794871795,11.965811965811966,5.953822523776437,11.90787873310435,11.90857977810058,11.909748147567717,11.911383783218678,5.953822523776437,12.041926578704528,12.440928577338312,13.093274140814232,13.98049727689777,15.077760611101402,16.354810590158767,17.777124072211862,19.30719172745028,20.905878301671507,22.533797764123655
837.394495412844,37.42859093314634,-1.0584915896587024,1.2668381991577533,13.761467889908257,14.678899082568808,71.8021039346557,3.3928600795015313,1.3712079412266351,2.286692994298855,12.844036697247708,10.091743119266056,5.968813797486903,11.937882206087782,11.938646026101617,11.939919015031846,11.941701106242453,5.968813797486903,12.083916225705844,12.518389408500719,13.22804327741103,14.191777107132971,15.381222662088685,16.761848546442693,18.294286709160815,19.935818437088958,21.64195083211332,23.368012205487425
859.6608187134503,36.6154608546542,-1.4641615751038983,5.581795755409685,10.526315789473683,8.187134502923977,69.93180375012496,3.2305384634475787,2.2179047939176275,8.80116826046582,6.432748538011696,8.771929824561402,6.101204239551198,12.202657129819404,12.20340306984243,12.204646262788057,12.206386648020139,6.101204239551198,12.345296974393554,12.769963748192296,13.464562191781086,14.409839485631487,15.57985012962554,16.942908691310983,18.462738597905776,20.099765564317185,21.812498737777492,23.55894009130997
856.3557046979865,48.35218585392385,-0.3025651813074189,-0.2226455291726106,14.093959731543624,18.120805369127517,70.29363360896737,4.072639999707644,0.6055028493466699,0.23179444657095338,17.449664429530202,14.093959731543624,6.346878151082111,12.69402911537324,12.694847540992756,12.69621153700111,12.698121033365261,6.346878151082111,12.850510599021614,13.316156048420002,14.077018709828831,15.11089491380468,16.387901742997048,17.871611596071336,19.520418409208883,21.289073137943802,23.13031945582687,24.99655760429056
853.9254658385094,59.39723656652316,-4.7999613652421305,33.214545082411775,1.2422360248447204,6.832298136645963,70.84705875774145,8.835314911068956,8.290692747296724,79.69563433094758,3.1055900621118013,0.6211180124223602,6.957437306086929,13.915094833817992,13.915755488377016,13.916856544731598,13.918397951018264,6.957437306086929,14.041436325132013,14.417700949687907,15.03353283077193,15.872453084119114,16.912240584723744,18.12573480046579,19.481804408576007,20.946438712669547,22.483914209863865,24.05798644763227
839.8795180722891,55.97318583302067,-2.0250196713768234,6.580744421913316,9.63855421686747,9.63855421686747,71.81817280184838,5.776760428701733,3.246374535047295,15.422565912108336,8.433734939759036,2.4096385542168677,7.378760087643819,14.757825162172951,14.758740105989318,14.760264956219048,14.76239962867015,7.378760087643819,14.932728492116823,15.452805290689366,16.301337424964448,17.45172886613591,18.8682988661673,20.507740556496138,22.32086678410989,24.2545566970405,26.253808312334552,28.263799424610184
843.84,27.525232060783797,-0.46860921197670613,-0.20579384798718747,13.600000000000001,16.8,71.18057049678504,2.3639355551886343,0.6235641134364395,-0.04408807873324605,16.8,13.600000000000001,4.287775907258522,8.575706735483836,8.576171491001407,8.576946058921918,8.578030402333955,4.287775907258522,8.664582781967871,8.929241628921444,9.362317817651865,9.952094918681386,10.682787517749613,11.535124143776644,12.487049391662042,13.51451334885513,14.59231309043561,15.694949532005865
846.6309523809524,24.92311021727614,0.3734490359197472,-0.5692341609681466,20.238095238095237,15.476190476190476,70.92999715879748,2.0687401471211437,-0.26064185503563814,-0.6552968856674619,15.476190476190476,20.238095238095237,3.198898229292661,6.39792767057306,6.398321299747472,6.398977325742628,6.399895714616951,3.198898229292661,6.4731874474709805,6.697123408430431,7.062984803175676,7.56003937394145,8.173876695362956,8.886985701958254,9.67944654135681,10.529702888407247,11.41537759198287,12.314093366783473
