975.2066115702479,101.32305892706125,-2.463368834111921,11.654651656538702,12.396694214876034,10.743801652892563,62.63186239251501,11.794348219177923,7.060052383743229,61.28567980778642,2.479338842975207,0.0,34.142135133935184,68.28555684599316,68.28941649051586,68.29584893190983,68.30485372098451,34.142135133935184,69.02286345673814,71.2090708514709,74.7555828645977,79.5214945015293,85.31895111306923,91.92192862202275,99.07666426502225,106.5131694539004,113.957207100519,121.1421041879472
425.77472527472526,242.0066269610326,2.4718278678381407,12.453272755648431,11.538461538461538,6.593406593406594,189.48314958366188,130.98896227322635,3.305930737761576,15.773360215776119,6.593406593406594,1.6483516483516485,0.6496126739270456,1.299249517682974,1.2993220258573508,1.2994428684405148,1.2996120388715882,0.6496126739270456,1.3131109990938563,1.3543354890270611,1.4216187910606504,1.5128845264688886,1.62534242334108,1.755597868222244,1.8997830852468403,2.0537034917639967,2.2129921712572016,2.3732652025127035
537.4,228.0794598380135,-0.2520798833266576,-1.7419711280725378,20.0,40.0,141.1975355558757,70.77984675199981,0.46354446753834705,-1.6415858711662004,20.0,0.0,4.811610733442582,9.624356427584468,9.627761224026608,9.633435599251735,9.641379125018355,4.811610733442582,10.274598648045918,12.200547568257326,15.317923915615888,19.492751473548076,24.54684070402454,30.266517520664536,36.41296683590516,42.73361033342959,48.97388952836371,54.888816044321615
960.5392156862745,36.79718434684155,0.10444830033002124,-0.017846184361073547,15.686274509803921,13.725490196078432,62.55662380780897,2.3975408111771235,0.13098184191735612,0.16074109566253592,13.725490196078432,15.686274509803921,21.93010815293493,43.86112863889036,43.86386558025185,43.868426956858336,43.8748124802323,21.93010815293493,44.38412999381946,45.93687156918144,48.46230004315898,51.869659231924715,56.03763734007137,60.8197431263863,66.05071398930929,71.55362053429769,77.14730146714341,82.65375353394808
419.42490842490844,187.11441633614388,0.6612946185038997,0.23614514750784332,14.652014652014653,13.186813186813188,251.4994137842393,1202.1859348350094,16.238324938001337,263.7403862732565,0.3663003663003663,0.0,0.006751311333623506,0.013502839760542545,0.013503491030201233,0.013504576445540227,0.013506095955423774,0.006751311333623506,0.013627386492169267,0.013998307245764462,0.014605407634624078,0.015432501614199927,0.01645783519278862,0.017654938243682035,0.018993645211733537,0.020441234901780184,0.021963634691210286,0.023526632746644252
612.6262626262626,316.0251423912436,0.8987541206961205,0.19947390392028375,18.181818181818183,13.131313131313133,128.3397405714249,71.1823864324263,1.3869535467818013,2.186573900197714,13.131313131313133,11.11111111111111,0.01526225718964098,0.030525001323296115,0.03052646213070279,0.030528896727596285,0.030532304990806444,0.01526225718964098,0.03080431512900735,0.031635600806102726,0.03299436109162497,0.03484169191150134,0.03712540258859299,0.039782144901489166,0.04273995239186826,0.04592105888241014,0.04924485391880301,0.05263083026305126
436.4771784232365,184.55554016199795,0.3788202292815846,-0.28125111405593595,17.42738589211618,15.767634854771783,297.5484043179706,1921.191015326235,15.333870214452546,234.0667675859322,0.4149377593360996,0.0,0.6198252735865506,1.2397396643779142,1.240007009646465,1.2404525639416752,1.2410762955368013,0.6198252735865506,1.2908071905487621,1.442188549681023,1.6876291246786275,2.017181512310479,2.4175897588219155,2.8729147262655235,3.3652769870489987,3.875676745495976,4.384846774495537,4.874093527681526
1052.4166666666667,768.6998899657351,6.610415090981446,48.026735087200464,4.166666666666666,1.3888888888888888,69.25304231711551,42.87585872929575,5.840429200410018,39.58759440948925,5.555555555555555,2.7777777777777777,15.096183862207594,30.192957443870217,30.194726564474294,30.197674972946317,30.201802480494745,15.096183862207594,30.53100545863037,31.53448306568566,33.16604568820459,35.366246026025124,38.055560860311964,41.13786093932231,44.504554782624005,48.0391943981563,51.62231067739492,55.136239342139405
983.5365853658536,34.11679906708975,-0.847576461747051,0.6278311082955081,15.853658536585366,13.414634146341465,61.08024497697972,2.1908814642354515,1.0532539461886892,1.0902177018771697,13.414634146341465,13.414634146341465,23.648882425866862,47.298541877375946,47.30087290556896,47.304757790116284,47.31019628736972,23.648882425866862,47.74398862218136,49.06661451486306,51.218239547056626,54.1222625803658,57.67635117282173,61.757026355258375,66.22511682980026,70.93179052731936,75.72484584071356,80.45493847190573
941.3873873873874,91.02906883217874,-1.1447549514864417,-0.0993400623165619,5.405405405405405,21.62162162162162,64.41733382531109,7.069600691691911,1.3149743750690965,0.25445540406837797,20.72072072072072,1.8018018018018018,19.547195623770826,39.095785654328516,39.099968786109315,39.106940377150885,39.11669998458822,19.547195623770826,39.89512839380732,42.26817062975251,46.12731737528873,51.33318827310486,57.69941510054187,65.00084726930466,72.98334132983622,81.37462764011315,89.89570001525209,98.27215910390282
401.9824561403509,168.80610953454735,0.8721747244229517,1.0469280319310172,13.450292397660817,15.204678362573098,180.37236449295082,90.22711193531148,2.1285818708509545,7.140521373030747,11.695906432748536,7.017543859649122,0.15754175367688492,0.3150850461425366,0.31508966251913095,0.31509735651444193,0.31510812817995115,0.15754175367688492,0.31597013388078193,0.3186334306101102,0.3230836488936132,0.3293378349268327,0.3374196391183419,0.3473588044286856,0.35919012966746844,0.3729516988474531,0.388682194904103,0.40641717467932326
434.59504132231405,189.90985588915933,0.8173138792480036,1.0947048942745186,13.223140495867769,13.636363636363635,177.9530977884221,135.87550191271689,4.579801787518977,27.679790386617544,5.371900826446281,0.0,0.0046788706428856726,0.009357905121722226,0.009358396621810058,0.009359215762740842,0.009360362505693087,0.0046788706428856726,0.009451896769438736,0.009731804236417209,0.010189889228060453,0.010813864151474317,0.01158721534919672,0.01248985068899068,0.013498875784873278,0.014589461125591823,0.015735758709168414,0.01691182543503073
1035.5862068965516,717.4434264487884,7.000088227486075,48.57024947879999,3.4482758620689653,0.0,63.57447832488548,9.237231633401587,-4.137568287751138,20.269722425694148,3.4482758620689653,3.4482758620689653,10.132671698864822,20.26589222529384,20.26753867080562,20.270282622725436,20.274123895164156,10.132671698864822,20.58044348288363,21.513504381603678,23.02838161832673,25.066714891267416,27.550640538034475,30.38637933099668,33.46850553399773,36.68466878328514,39.9205198094557,43.06458533904086
875.2608695652174,106.97346984845247,-2.562340553682927,10.81568963708275,7.246376811594203,7.246376811594203,70.48343714516166,17.51009482134233,6.232846092703269,43.409204505849345,2.898550724637681,0.0,32.449849687714135,64.90128267635691,64.90603246793168,64.91394841652945,64.92502996614266,32.449849687714135,65.80861629436227,68.49877144334187,72.8621720412013,78.72470710824108,85.85460857961766,93.97361163834292,102.7701822197936,111.91407080940215,121.07138961385185,129.91939818499108
442.81481481481484,216.79306348016271,1.4691951474362925,4.128127535306372,12.592592592592592,11.851851851851853,175.50677822842138,112.67720593096992,2.781701408671551,10.768246327045247,11.11111111111111,2.2222222222222223,1.4194232589129974,2.838872734916038,2.838951384149431,2.839082459416086,2.83926595053316,1.4194232589129974,2.8538914425852404,2.8983562046896307,2.9702648563275607,3.066435699786177,3.1826414735995843,3.313819848898659,3.4543216207744165,3.5981819184641313,3.739398691499823,3.8722027128260676
951.5694444444445,54.35322396368879,-1.2244469651978434,3.4236987803454006,9.722222222222223,9.722222222222223,63.27909430359768,3.9758415630933004,1.9946718677789466,6.721988616456425,9.722222222222223,6.944444444444445,19.66096412834552,39.32284357171588,39.3255894598938,39.33016575053943,39.33657215919212,19.66096412834552,39.84758170745051,41.40580624102742,43.94123456981357,47.36434347119288,51.555432510276404,56.3698946007791,61.64450066460735,67.20437094852014,72.87027533448536,78.4658957514466
4063.7619047619046,8264.449193208233,2.276962066397663,4.040236417291365,14.285714285714285,0.0,121.33548417830094,82.56415691999145,0.38114814651456713,-0.45344908434177134,19.047619047619047,19.047619047619047,0.02495867726455399,0.049918071217290416,0.04992022124845768,0.04992380452247201,0.04992882087244714,0.02495867726455399,0.050329247144322534,0.05155394144620556,0.05355902903154645,0.056292270088688326,0.05968414066323098,0.06365117885698134,0.06809992821415936,0.07293124340594913,0.07804470599533282,0.08334289747481419
2340.6666666666665,3635.4981624103307,1.7473105375847304,1.127116667655538,16.666666666666664,0.0,177.3051727389678,262.20752941830665,1.7319846670970025,1.101310302222994,16.666666666666664,0.0,3.5277808049360604,7.056277621202504,7.058425596646692,7.062005360568927,7.067016620261197,3.5277808049360604,7.466371098783006,8.679547328656446,10.638358033753956,13.251602334944776,16.39842751526296,19.934661991417393,23.700287012002818,27.527606274539256,31.249638203816836,34.708251935047265
421.80204778156997,180.7804517541123,0.5891728984934554,0.22984608014030972,17.4061433447099,15.017064846416384,181.5084715487973,124.49022110460977,3.6523328559751134,19.19910245509768,8.532423208191126,0.0,0.005995985832666841,0.011992160089414531,0.011992725352776392,0.011993667428777723,0.011994986273018177,0.005995985832666841,0.012100259161280354,0.012422195297466269,0.012949120450653794,0.013666993793584504,0.014556959696165083,0.015596099199436829,0.016758328118419253,0.01801539646189504,0.019337939688096235,0.020696531049097827
419.34939759036143,188.33400436042422,0.5952012684329352,0.3385389839924384,16.265060240963855,15.060240963855422,191.25679303324677,161.30452943266772,5.10558843990463,37.260314777380906,7.228915662650602,0.0,0.004277208889550512,0.008554565642172753,0.008555009224293074,0.008555748504177747,0.008556783446354818,0.004277208889550512,0.008639391349471587,0.00889197382054839,0.009305243873440007,0.009867972669539657,0.010565067901116927,0.011378164428868014,0.012286332614791977,0.013266870109864302,0.014296139429199222,0.015350412306251173
949.3809523809524,107.8723567531271,-2.5388958766877487,9.590432644135229,1.9047619047619049,14.285714285714285,64.56923352542427,13.036692935696845,5.767209233158319,40.3541264449344,4.761904761904762,0.0,26.586847948789906,53.1748807017667,53.1784350409456,53.184358694977966,53.19265129698466,26.586847948789906,53.85412078092214,55.87122998035405,59.15360342158301,63.58573740230059,69.01314036715168,75.24908189029796,82.08263831137565,89.28761518391518,96.63188868005962,103.8866972316097
1026.09,99.64889311979336,-0.8627478155615659,0.3289715982995993,13.0,18.0,59.093556945820325,6.431265766218991,1.373891354228413,1.6666433925079023,17.0,8.0,23.991133580311523,47.98424643426921,47.99018412979467,48.00007987097053,48.01393303078147,23.991133580311523,49.11887255191891,52.487390980129426,57.965782345805124,65.35672417324267,74.39638622813106,84.76605271280252,96.10597859513142,108.03075737862106,120.1454116600911,132.06139841769144
987.0126582278481,110.91089977035863,-3.168723216490124,15.22486730938111,5.063291139240507,16.455696202531644,62.37285665784995,15.69946781913666,7.199271527190987,56.443794472158174,2.5316455696202533,0.0,41.06296211898212,82.12778537328299,82.1333686482357,82.14267366982313,82.15569978308095,41.06296211898212,83.19432811438314,86.35641492113936,91.48482814663298,98.37392352671891,106.74931592426233,116.28051281813711,126.59595630063495,137.2996748413196,147.9886734107346,158.27016954036645
431.765690376569,215.9899935565849,1.0414018076054024,1.4120585163934223,15.062761506276152,13.389121338912133,185.0164457135276,129.9424171943295,3.2699644221549025,14.271579011691774,7.531380753138076,0.8368200836820083,0.003666735173938546,0.007333591190719412,0.007333953713290568,0.007334557897723684,0.007335403714241978,0.003666735173938546,0.007402911663518494,0.007609272746492688,0.007946743163600523,0.008405895517675241,0.008974057112364802,0.00963580443272436,0.010373556393069815,0.011168237873657191,0.01199998224715242,0.012848840515835819
1132.7033898305085,71.82019796663522,0.9250641028688507,3.6743298234731263,11.016949152542372,11.864406779661017,53.176260567561364,3.2740402891753804,-0.011679806984191236,3.095478083527193,11.864406779661017,11.016949152542372,15.718797565102642,31.438479350988402,31.441131955820733,31.445552772154915,31.451741512428153,15.718797565102642,31.945321242234293,33.44956227477355,35.89437271343721,39.18935112716062,43.21374055700133,47.821856734217164,52.849554841581465,58.12139404216511,63.458127956985095,68.68414023619941
954.4375,49.01335117853094,-1.302135845985083,2.6275640916059526,11.458333333333332,15.625,63.04407274025092,3.5183323906449004,1.8372940200707335,5.188879307944481,13.541666666666666,10.416666666666668,23.77431573423086,47.549636043086835,47.55264970399093,47.55767226226436,47.56470340307381,23.77431573423086,48.12553101008874,49.835492089654196,52.61722439292787,56.37160285089938,60.96603745490623,66.24026472786423,72.01325828594575,78.09090156346849,84.27403250488253,90.36645950393498
962.3764705882353,154.66388425688012,-0.9846268335020641,6.6800532841511995,7.0588235294117645,8.235294117647058,65.05852594440168,19.310652753071565,5.0492149706728195,30.23873520905036,3.5294117647058822,1.1764705882352942,14.594071456224839,29.188999268690928,29.191568280154527,29.195849775064634,29.20184346714376,14.594071456224839,29.679826179401815,31.136026149316386,33.50107266777471,36.68506516605414,40.568031788158436,45.00543183113433,49.83470488075675,54.88251736215831,59.97232561903744,64.93186569532602
947.9905660377359,61.43649816865192,-1.2402468167545335,1.7655267101453553,9.433962264150944,13.20754716981132,63.58536666338997,4.554862609576897,1.7174487776506733,3.4325065948936926,13.20754716981132,6.60377358490566,32.197077561179206,64.3951464322789,64.39812029828445,64.40307652911093,64.41001480600247,32.197077561179206,64.96339263024757,66.6501129919337,69.39229602772211,73.08971026780797,77.60843677714351,82.78685514550756,88.44277025021216,94.3813016739757,100.40312391949448,106.31263650696579
1182.0963855421687,682.2870401580691,5.327857986575612,35.937722244258396,15.66265060240964,1.2048192771084338,57.86887779444833,17.038812289187376,0.94244807772896,6.868117765587156,2.4096385542168677,16.867469879518072,2.5110061058134105,5.022197901339066,5.0227549573023484,5.023683339997427,5.024982983562663,2.5110061058134105,5.128606493386203,5.444054533052061,5.955565127174052,6.642518139836688,7.47747047359109,8.427483507365848,9.455697292783597,10.523063843630121,11.590144375608912,12.618873745658814
778.7142857142857,240.66082492391905,-1.2012625039404932,-0.04515529268362917,0.0,14.285714285714285,92.74622481295958,52.99056338117122,1.7935120943989928,1.5408973500656034,14.285714285714285,0.0,4.685057134405386,9.370934221135824,9.373394012459183,9.377493445831282,9.383232193022712,4.685057134405386,9.840597947415121,11.23045575184336,13.47602900116538,16.474890027200377,20.091118767574816,24.162248352115313,28.507473221567913,32.93664458720453,37.2595400964253,41.29488942210377
975.6933333333334,73.74568431817252,-5.539394075908863,43.288391317437316,1.3333333333333335,6.666666666666667,62.269974599899115,11.175813226938097,10.219357766512589,112.90475120218079,1.3333333333333335,0.0,23.012163061975233,46.02551852440496,46.029095649511476,46.0350572705038,46.043403006125146,23.012163061975233,46.709047237560114,48.738100249582104,52.037285648756246,56.486648623150096,61.92583740293282,68.16120152531029,74.97425609635923,82.13107119292917,89.39210482759366,96.5219854215318
902.1985815602837,61.03181589285639,0.05911442097195145,-0.6554786382089266,17.73049645390071,17.73049645390071,66.8105925653896,4.543013409935319,0.21195032434941372,-0.608025802929379,17.73049645390071,17.73049645390071,18.999417580300836,37.99984706026779,38.00288269736399,38.007941886188746,38.01502431725527,18.999417580300836,38.57998338631759,40.30304202035104,43.107755648355386,46.89665987357225,51.5393589834751,56.878196285576514,62.73502171555274,68.91870806978255,75.23303446421671,81.484545004078
419.405487804878,188.43680662714283,0.5335518604578516,0.2548341264124554,13.414634146341465,15.548780487804878,251.13935676889514,1104.3110997953993,17.45051247616693,308.855022749018,0.6097560975609756,0.0,0.004627193579274185,0.009254547329684532,0.009255027835293817,0.009255828651979292,0.00925694974074792,0.004627193579274185,0.009346430772266824,0.009619991888142686,0.010067467638856747,0.010676535352525872,0.011430656497835505,0.012309744987798278,0.013290965365021392,0.014349620248732665,0.015460082712026178,0.016596728159989856
439.0886075949367,208.5562905450452,1.0798032783116824,2.0715929231809076,14.556962025316455,14.556962025316455,178.732635337973,123.6493072666984,3.2033010896172924,13.413630768321127,8.227848101265822,1.89873417721519,0.4616653965312753,0.9233808255019293,0.9235309195549343,0.923781065426414,0.9241312467919488,0.4616653965312753,0.9520594905693504,1.0371701266607138,1.1754830139011996,1.3618519251807137,1.5893858657829545,1.8497438163169897,2.1334877837604243,2.4304767689513316,2.73028249857793,3.0226070631657804
452.02564102564105,209.0224075641301,1.1627508522295815,2.2185510594349607,12.82051282051282,16.666666666666664,170.7874816991254,145.27434321198876,8.785707106338686,105.09105442007501,5.555555555555555,0.0,0.2443938466208991,0.4888574501093804,0.48906671635176385,0.489415478888198,0.4899037159185732,0.2443938466208991,0.5288474822255542,0.6475909842454683,0.8407749023304498,1.1015379601949433,1.4207053982169826,1.7871923475491358,2.188484846189628,2.6111734708426653,3.0415122621432955,3.465974931733945
401.84831460674155,175.48086269253622,0.17275449946914256,-0.5649007938021438,17.415730337078653,17.97752808988764,207.85154326659355,212.5811834208848,5.7303779680609335,40.65126002020092,8.426966292134832,0.0,0.006347981496475454,0.012696171746025912,0.012696797995352687,0.012697841711237265,0.012699302844191986,0.006347981496475454,0.012815931932291037,0.01317257638943924,0.01375623816351304,0.014551243455093468,0.015536515628892404,0.016686390317832558,0.0179715930908156,0.019360332588415564,0.02081945738231339,0.022315623054829776
