872.8308823529412,77.66799203955736,-3.273280568991449,16.425456290895884,5.147058823529411,8.823529411764707,69.62083342073834,10.411329646182923,6.068715911919255,42.46821660393801,2.941176470588235,0.0,8.488039189522139,16.9765011701239,16.977769519096146,16.97988335316249,16.98284255099822,8.488039189522139,17.21893722821765,17.939519848232294,19.114185040945017,20.70464802195798,22.659594125538664,24.916817741109092,27.405775227704048,30.050420911447258,32.77218355970258,35.492937508080146
881.6206896551724,105.82171532349649,-4.032791329446375,24.900666569052394,3.4482758620689653,4.597701149425287,71.84616416063946,37.35481900982475,8.815545114972876,77.71531927908372,1.1494252873563218,0.0,13.182165056379352,26.3655247196769,26.36910845314383,26.375081051304576,26.38344207775943,13.182165056379352,27.05001856179576,29.078364881899358,32.36464496891327,36.77234475092552,42.11991150196054,48.18964952956148,54.738248205363156,61.508343453255456,68.24046555687156,74.68471901233087
905.6714285714286,62.545691053722905,-0.4798517009296794,-0.6852739255677673,12.857142857142856,20.0,66.57936702522346,4.793254471268177,0.6979615842454244,-0.5297478766311339,18.571428571428573,11.428571428571429,5.244465309095003,10.489198778794568,10.49000324873198,10.49134399237401,10.49322095034258,5.244465309095003,10.643063712104592,11.101545130509008,11.852754931823737,12.877766058024717,14.150982993138625,15.640995848460973,17.311612512882114,19.123024457073203,21.03305712135616,22.998453745356738
889.9,116.57833495902307,-3.557200439801706,18.089226822570495,5.454545454545454,4.545454545454546,70.86571999616693,29.70159967057534,7.102834446775376,51.87136368521622,1.8181818181818181,0.0,8.851238251274365,17.702901855418713,17.704177890548625,17.70630453749978,17.709281678880025,8.851238251274365,17.946832581161168,18.672163476293065,19.855571677165653,21.459927189726272,23.435361796804255,25.721255290287854,28.24861546237463,30.94273575901086,33.726003304125065,36.52072602272399
931.9338842975206,51.27203989500396,-0.057814005188216534,-0.8670640624276653,16.528925619834713,19.834710743801654,64.57902678481733,3.5829478522364466,0.24839488096738044,-0.7574936099737042,19.834710743801654,16.528925619834713,6.078833672243467,12.15790457888217,12.158616271671322,12.159802391665455,12.161462886885143,6.078833672243467,12.294027737612828,12.699679210599593,13.364449568577003,14.271769614531168,15.399231637031694,16.719335942036846,18.200392472496148,19.807538386580372,21.50382842780501,23.251353189710795
868.2028985507246,90.04774574267549,-2.561163876057609,9.692648165910922,8.695652173913043,8.695652173913043,70.24625304026354,11.466037488443042,4.635970963879033,24.811234112449867,2.898550724637681,0.0,21.056293431040103,42.1134893101601,42.11619659191359,42.120708519887344,42.127024781675665,21.056293431040103,42.630674973160794,44.16436657160491,46.65288806491459,49.99804786361496,54.068707696161916,58.70670294167172,63.73389750540591,68.96000276466836,74.19075631690309,79.2360463504791
891.6779661016949,62.952346970415626,-0.1622595276226227,1.650188119032542,17.796610169491526,11.016949152542372,67.63756328246028,5.004524852095794,1.2742304808035647,6.903223413145557,10.16949152542373,15.254237288135593,6.149050072515224,12.298335999874357,12.299043554590764,12.300222779734217,12.301873626230865,6.149050072515224,12.433681921495786,12.837188203604548,13.49900590225707,14.403455599399404,15.529289827042568,16.85036088118834,18.336430335704534,19.95408710002791,21.667737279635354,23.440627393249624
850.5604395604396,48.36087074885032,0.08417555473312753,-0.48462533138086217,15.384615384615385,18.681318681318682,70.77051964494706,4.033651681653629,0.16853955618501998,-0.507393261897148,18.681318681318682,13.186813186813188,7.183715114245724,14.367780201255986,14.36883010088796,14.370579871403939,14.37302941950255,7.183715114245724,14.56850018832151,15.165561241150991,16.140420886671134,17.463591548573937,19.09549459760381,20.988057192455926,23.086619786112593,25.332057634333722,27.6630109811609,30.01811619734
940.2705882352941,92.01296433403463,-0.11598956960839843,0.773718665700371,16.470588235294116,15.294117647058824,64.45716089863511,6.736041756357647,1.3666430112216685,6.053029968479141,11.76470588235294,14.117647058823529,6.0648206958336335,12.129875304118224,12.130577031251201,12.131746542407022,12.133383786489032,6.0648206958336335,12.26409321249034,12.664077177146991,13.319593446784417,14.214352593194267,15.326323111436801,16.62846311286495,18.089603773248758,19.675446090936898,21.34962861844718,23.074822230171435
841.112,81.34029417207687,-3.85709404351899,24.44187882744752,10.4,4.0,72.78604608607239,16.78574190394284,8.684226388062546,82.78729608227826,1.6,0.0,11.0930991574727,22.18708117573749,22.189729701227634,22.194143720762472,22.200322949934378,11.0930991574727,22.693158424864972,24.19530671263897,26.6372887536338,29.929607905466092,33.9526118535687,38.561774329585084,43.59399443511786,48.874586301770144,54.22460156064271,59.46811778542849
873.8101265822785,46.22073509961231,-0.44750391491283387,-0.9677539354204323,18.9873417721519,25.31645569620253,68.86262618575029,3.7443652173321045,0.5815806666007356,-0.8235717966932561,22.78481012658228,17.72151898734177,5.655228326908179,11.31068677033673,11.311377110591494,11.312527646662222,11.314138332019924,5.655228326908179,11.442747184284013,11.836547379337171,12.482739789728353,13.366447037866408,14.467495265670994,15.761035532362433,17.218297520340347,18.807445003179133,20.494499223051193,22.24429474721514
879.6890756302521,72.88171006618019,-4.678112687198435,32.998199971036705,6.722689075630252,2.5210084033613445,69.18138949048395,12.803784856452083,8.964428820901722,87.15447798226896,1.680672268907563,0.0,22.135453368051834,44.27289330740121,44.278852864035215,44.2887849342458,44.3026887318128,22.135453368051834,45.41083893745609,48.77891022418903,54.222616271056445,61.496530025805505,70.2748773707575,80.16809102745158,90.74237456986239,101.5411448173011,112.10713067936616,122.00389450273462
870.8382352941177,90.11048941587303,-3.529690297295434,15.409729403829886,1.4705882352941175,4.411764705882353,70.21031258953097,13.152195276297146,5.210991843047709,28.9722016102929,4.411764705882353,1.4705882352941175,10.660116275277877,21.32079748955431,21.322492270998087,21.32531678823413,21.329270863516864,10.660116275277877,21.64465765463416,22.606226459662064,24.17034784613234,26.281102383765763,28.863741640735633,31.827994962444738,35.07200602000494,38.486690304927585,41.960286450560275,45.38286970297723
833.3472222222222,85.34735557353292,-3.6921038440941705,17.518632096009657,0.0,4.166666666666666,73.42778195084745,14.748156114871398,6.108115358967342,40.629383953810496,2.7777777777777777,0.0,8.980583706447154,17.961687205795084,17.963246555064924,17.965845372408452,17.96948351067391,8.980583706447154,18.25975691277561,19.145828255388462,20.590694059717066,22.547868250039873,24.954984042816033,27.73634080951798,30.80595143001177,34.070938513284354,37.435113459427114,40.80256745880711
777.5526315789474,184.11798239292983,-1.879689183066266,2.7315272561265864,3.9473684210526314,14.473684210526317,87.86928306206335,48.44660155312302,3.076996764007208,8.501160965498073,7.894736842105263,0.0,13.673536961282101,27.347919904493125,27.350457792988692,27.354687416181946,27.360608487640427,13.673536961282101,27.83278075873141,29.27104293525996,31.60617527779525,34.748285226536055,38.57747511028759,42.94939299710626,47.70182536691377,52.66197171652934,57.65401056788542,62.506559763477966
907.0519480519481,49.94773790852915,-0.3028548935264056,-0.8064146345141268,15.584415584415584,22.07792207792208,66.35366065844981,3.7342675977665185,0.4771244484552026,-0.778095390614375,20.77922077922078,14.285714285714285,7.781955907922208,15.564187516311165,15.565014604637831,15.566393041604504,15.5683227618476,7.781955907922208,15.722354918525783,16.193374740341717,16.96420973832151,18.014138620417725,19.315273237530498,20.83361238182481,22.530304325344098,24.363056550921506,26.28762536557731,28.259316217747905
895.9902912621359,40.18222935858395,-0.16317729986922208,-0.8854354704802612,20.388349514563107,19.41747572815534,67.10126423876004,3.041558570650915,0.3106349306204243,-0.8088195724528364,19.41747572815534,20.388349514563107,6.8035704575838265,13.607413310496597,13.608230483759089,13.609592396782872,13.611498985950155,6.8035704575838265,13.763689853369566,14.229140396299403,14.991054925903077,16.029200988376672,17.316272284639613,18.818850747365307,20.498565653301007,22.313397544635574,24.219069459604576,26.170465830416
817.0370370370371,152.10485698079066,-1.0037457791465259,5.684509543344696,4.62962962962963,8.333333333333332,77.82272241602779,25.84653613146451,3.4967656688376043,12.665624814303923,7.4074074074074066,0.9259259259259258,81.57489713598035,163.15329024895834,163.16377792775106,163.18125655175675,163.20572486007407,81.57489713598035,165.15652705418717,171.0937000891486,180.71610032618744,193.62770660965913,209.29997179726664,227.0960253688168,246.2995065133531,266.1465075605196,285.8589683833956,304.6778210223491
874.2269503546099,73.01553014580331,-4.4437339679833805,28.776352094422297,5.673758865248227,6.382978723404255,69.55769403929392,11.890684579405933,8.170072143646724,74.68657321197907,2.127659574468085,0.0,9.530287249367927,19.061120371981115,19.06275795765579,19.06548715357899,19.0693077894585,9.530287249367927,19.374058802479727,20.303295488567894,21.815138602848105,23.855993349726017,26.35419502316655,29.22315801083818,32.3651269990376,35.675332946273016,39.04633886269571,42.372355799505186
846.170731707317,113.66529865784368,-2.6238041895805795,8.528737226463377,2.4390243902439024,6.097560975609756,73.1920354060087,17.66672784117209,3.9617071095665235,15.643604280206137,6.097560975609756,1.2195121951219512,34.54071152841885,69.08403708197746,69.09187896408818,69.10494812326097,69.12324359303508,34.54071152841885,70.58177485210408,75.01921486057259,82.20599010965158,91.83931548972569,103.51598044830197,116.75164104336353,131.00372789805647,145.69671372415618,160.2483748190711,174.0956549260789
909.0454545454545,48.7588474700907,-1.9221384589509245,3.932058351292042,5.454545454545454,10.909090909090908,66.21734191650367,4.005181596268099,2.3089386667761174,5.630952800965462,10.0,2.727272727272727,5.763671033506036,11.527580999499326,11.528297786745128,11.529492398102406,11.53116478249475,5.763671033506036,11.664685535013719,12.073345472373918,12.743323308713695,13.658325798062263,14.796304151726872,16.130174992458162,17.628691600116902,19.257428025710194,20.97983480424873,22.75832335763803
912.5221238938053,115.86283447761923,-3.6610920932975546,16.88625833890987,3.5398230088495577,6.1946902654867255,68.43336568914106,23.1684847085891,6.665058986872562,48.3971738270393,2.6548672566371683,0.0,20.944675172434792,41.89129340962545,41.89712245261863,41.90683702004019,41.92043635558749,20.944675172434792,43.00438768894934,46.29974491568561,51.6287408370032,58.755362536877115,67.36641676113561,77.08751413339841,87.50194133065138,98.17131796241027,108.6568488578388,118.53997336930222
897.1034482758621,36.31061226173468,0.014586260328308226,-0.5663702935925867,18.39080459770115,14.942528735632186,66.99186566887411,2.719673709605951,0.16444832582101118,-0.4572816066463581,14.942528735632186,18.39080459770115,6.760146660838344,13.52054527075827,13.521301106916379,13.52256079689161,13.524324285254005,6.760146660838344,13.665110365525951,14.095905218479073,14.801840273614907,15.765284001953997,16.96243606459625,18.36416055130333,19.93698838239249,21.6442427764434,23.4472371766424,25.306493345997342
856.6694214876034,35.846870935462,-0.31632702989576833,0.2018979884029961,16.528925619834713,17.355371900826448,70.16366166227161,2.992410970560872,0.5885523732250774,0.5606073830540255,17.355371900826448,14.049586776859504,11.04232288532604,22.085106331133574,22.08648798660688,22.088790659160427,22.092014218947963,11.04232288532604,22.349212802783647,23.134357454373085,24.414768654315914,26.149436630818702,28.283351079961573,30.749753041588587,33.47282429423275,36.370677536613194,39.35849834148333,42.35168643725875
1087.260162601626,54.3348302549603,-0.4816613600727911,-0.01203022525255859,17.073170731707318,17.88617886178862,55.326835019275634,2.853368030406913,0.767460244140317,0.6184827179706285,17.88617886178862,13.821138211382115,6.208523770011006,12.417331204131875,12.418182181771044,12.419600428869423,12.42158587198,6.208523770011006,12.580033122462059,13.064146647145165,13.855041381037418,14.929407302310715,16.255843337144327,17.796021054145193,19.506086211440348,21.338234438227918,23.242390665553167,25.167918999399745
836.7706422018349,94.5973245764317,-3.669456416172459,17.845038789468234,3.669724770642202,3.669724770642202,73.73962173367275,19.81564893990507,7.263548123051099,59.073735377700615,3.669724770642202,0.0,24.10010699574092,48.20314722137436,48.21194670417444,48.226611819266296,48.247141532347904,24.10010699574092,49.8840536319051,54.86748024534281,62.94945881767689,73.8055559073963,87.00325348133023,102.02218192630819,118.27815797477533,135.14971923360508,152.00573409148106,168.23263972986848
926.875,113.25993960997218,0.4692263669494765,27.08258509779674,1.1363636363636365,5.681818181818182,66.41848255556127,17.254452835939905,8.178027182188318,71.07707397324957,1.1363636363636365,1.1363636363636365,69.68013546203372,139.36573264662292,139.3821174031696,139.409423960385,139.44765026284816,69.68013546203372,142.4948947418406,151.76348199791636,166.76681705199135,186.86128661696918,211.19020334318117,238.72515279132736,268.31505029211564,298.74019306787557,328.7683614523294,357.20997302158696
884.6548672566372,40.41592823468087,0.3269228146818673,0.17441991038690707,13.274336283185843,15.04424778761062,67.96341653480502,3.078802458804281,-0.04499231078338152,0.07870504624354391,15.04424778761062,13.274336283185843,6.050823085745411,12.101872798826683,12.102552671444155,12.103685761173113,12.105272021065186,6.050823085745411,12.231924629691166,12.619661578292934,13.255663228239055,14.124940358521908,15.207193343368541,16.477460884321268,17.906904228103542,19.463693409551666,21.113958665877337,22.822768763502975
887.8839285714286,45.83330540738172,-0.2053393220923676,-0.010471891486557361,16.964285714285715,16.071428571428573,67.75986001654108,3.563292693873712,0.5071094072023753,0.18979127326319434,16.071428571428573,15.178571428571427,6.113980281617575,12.228192716322178,12.228889165388654,12.230049879851162,12.23167480873947,6.113980281617575,12.361399692969682,12.758354283522786,13.408852470661087,14.296657525379388,15.399823852974569,16.691439358572374,18.140520643441548,19.71302129362884,21.372909538245967,23.08326996093101
915.7575757575758,52.00157163691216,-0.6278127769422592,-0.18186531388789007,14.14141414141414,16.161616161616163,65.74042450001942,3.8995461042804367,0.878501998728346,0.23275377784014628,16.161616161616163,12.121212121212121,18.267898057202338,36.537015890053816,36.54067513072571,36.546773577599865,36.555310799333704,18.267898057202338,37.236009424174014,39.30825075549522,42.66866724693331,47.181906295993365,52.66746349554333,58.90807553620657,65.65970102300162,72.6625517732913,79.65258963433244,86.37289159297052
884.6787878787878,37.712627557870334,0.15412674496971904,0.04395685553940876,14.545454545454545,15.151515151515152,67.94433479001546,2.893189605134477,0.10190490595943227,0.0042999422599079296,15.757575757575756,14.545454545454545,11.093538345392359,22.18759134651551,22.189135282747696,22.19170840660303,22.19531056329233,11.093538345392359,22.482665117798277,23.35923246560882,24.78662507975872,26.71603089405435,29.082065932752695,31.805541314229846,34.79676791031711,37.95923022262571,41.193445429229186,44.400818692630985
907.6142857142858,48.06938225319816,-0.7946609161879089,2.2706887540227223,13.571428571428571,8.571428571428571,66.30372697688462,3.7282490534090607,1.4142131554307626,3.943214230456081,8.571428571428571,13.571428571428571,5.751722165324014,11.503697213714714,11.504455852065627,11.50572021315393,11.507490242737038,5.751722165324014,11.648805866471228,12.081310626084253,12.790336213059998,13.758564098548536,14.96254050170529,16.373427946176673,17.95791599078525,19.67925358192213,21.498361375854376,23.37498039815174
863.5471698113207,65.6999754088203,-4.571590602404004,30.02281186571676,4.40251572327044,6.918238993710692,70.19105320593172,9.79499383838322,7.46163054752507,60.75641642413724,1.257861635220126,0.0,9.366297897872487,18.733263777595166,18.735267683284167,18.738607393230268,18.743282708140807,9.366297897872487,19.116254759470362,20.254102765702637,22.10732611511031,24.613114456618995,27.687373961393792,31.22832143400198,35.120770328701106,39.24088628962597,43.46116998196658,47.65541959539426
911.3815789473684,129.86034676014393,-2.006045922994794,5.925440174069621,9.210526315789473,13.157894736842104,68.12230404737629,17.32238584114476,4.492349902929465,23.006729784375334,5.263157894736842,0.0,40.67437575368944,81.35116514945447,81.35840589535667,81.37047320412502,81.38736617420949,40.67437575368944,82.73404032777853,86.83055853012745,93.463114060012,102.3490709741711,113.11183163460163,125.29865862227409,138.40186219827646,151.88220755559863,165.19329442024082,177.80563495445097
1101.2,53.151739091219326,-0.6131626330011608,0.42235942513050917,13.684210526315791,14.736842105263156,54.61780902658951,2.7374898052403727,0.9251167915225871,1.0572298252168313,13.684210526315791,12.631578947368421,6.878879029977038,13.758010865617596,13.758769269590161,13.760033232817927,13.76180269021442,6.878879029977038,13.903015271503913,14.334494960195865,15.039483254174778,15.997322628907444,17.180184039946827,18.55409689803006,20.080189299614677,21.716081975946455,23.417373548333288,25.139152139922935
825.7471264367816,166.28104020249302,-2.6133904966043495,6.381466911902081,0.0,11.494252873563218,81.51239871512246,47.95813750431263,4.264840935379769,18.043715372710295,5.747126436781609,0.0,17.280020271086087,34.561167243231814,34.56454727540789,34.570180425696925,34.578066339110855,17.280020271086087,35.20706354131701,37.1247484221651,40.243972833434455,44.45291156611118,49.601916794553595,55.50998656672732,61.97248441011116,68.76971271396329,75.6759060175725,82.46819926101405
