983.5123966942149,40.5159117202158,-0.3664005189690727,-0.3013207201805721,17.355371900826448,15.702479338842975,61.11143039692868,2.566775628363713,0.5690068313415085,0.012857466732250078,15.702479338842975,17.355371900826448,6.972188429524824,13.9446859502652,13.945613211754818,13.94715860704806,13.949322075363316,6.972188429524824,14.122078224219472,14.651170533034705,15.519747367434736,16.708388810383386,18.190778017459486,19.934526385479572,21.90217192069349,24.052308852221167,26.34080230339808,28.7220400925991
976.5822784810126,52.143086388318665,0.2928981710975552,-0.8771144564449247,16.455696202531644,18.9873417721519,61.612196304699026,3.2530246811663774,-0.13037585958287476,-0.976420886786606,18.9873417721519,16.455696202531644,9.363022505512886,18.726364104827777,18.727321374814974,18.728916786731403,18.731150283485498,9.363022505512886,18.90952817292287,19.456206782828122,20.354873439524557,21.58719582019806,23.128222668394017,24.94706492670827,27.00772659427679,29.270055086253247,31.690777658015083,34.224588926891755
851.32,74.90316593219987,0.14326067886228463,-0.9364767204040776,16.0,24.0,71.0260822217406,6.244938235070924,0.12599653711875372,-0.9791398136806162,24.0,16.0,9.264247666431984,18.528803080795626,18.52972631563967,18.531265010543155,18.533419120752466,9.264247666431984,18.70551126308088,19.233599609620917,20.10394365740865,21.30205254570448,22.808060813967003,24.597136187178933,26.6399847445165,28.903440472389452,31.35112465878479,33.944159655634714
1043.1473684210525,44.651862322463835,-0.49545400555986324,0.2507227441029962,16.842105263157894,12.631578947368421,57.62653915536036,2.535175577978818,0.7742198011578497,0.9008672194211296,12.631578947368421,14.736842105263156,8.900930420781396,17.802198016844937,17.803209528933166,17.80489533655403,17.807255370920945,8.900930420781396,17.99569449064894,18.572655545609127,19.519271750533587,20.81357440746735,22.425804127209666,24.31935644250938,26.451927667282412,28.77681388252886,31.24431093089007,33.80316100069003
1007.3508771929825,83.2771722113043,0.04100963684363734,-0.9773399441593633,21.929824561403507,14.035087719298245,59.97357050657776,4.994658668103693,0.22269504805670218,-0.8401926285962005,14.035087719298245,21.929824561403507,9.196055294185474,18.392451537094306,18.393474369636376,18.395179045113725,18.397565495389806,9.196055294185474,18.588121310065077,19.171655600071304,20.129360576062034,21.439444815737524,23.072353570301104,24.991675427219516,27.155244237429937,29.516393104240816,32.025312401697,34.6304613286405
984.9677419354839,58.243916404436185,0.2146577846183264,0.7637457333000319,16.129032258064516,9.67741935483871,61.12883846758181,3.6227911038899174,0.3025455430043923,1.2263296218780768,9.67741935483871,16.129032258064516,9.62452303118024,19.249407342516182,19.250491168450708,19.252297496567163,19.25482625420672,9.62452303118024,19.456742766867794,20.07503748051052,21.089700038653508,22.4775267609669,24.20708674015152,26.239720830304268,28.530750661066072,31.03084705374896,33.687502038272925,36.44654646651824
1030.6274509803923,46.45426204483234,-0.2313759490466839,-0.15247935280637614,13.725490196078432,14.705882352941178,58.33716945618757,2.6716392103532787,0.46674035540712533,-0.11056255055134878,14.705882352941178,13.725490196078432,9.826400818328024,19.65310549713737,19.654017067065176,19.65553631189174,19.6576631740397,9.826400818328024,19.827507756874322,20.347825087543303,21.202468279493164,22.373015867875267,23.83447417297161,25.556033238519618,27.501983604400582,29.632756919215872,31.906049634753074,34.27798742198575
1037.445945945946,54.06481142957957,-0.3504474965428526,-0.7447048511066394,13.513513513513514,22.972972972972975,57.99526444768398,3.0925353728966596,0.5177436100118121,-0.739974092492147,22.972972972972975,13.513513513513514,7.833398455842694,15.66706434769129,15.667866646066566,15.669203777884155,15.671075694934215,7.833398455842694,15.820574191294073,16.278723351811664,17.031794585639293,18.06436118531841,19.355488694432086,20.879362081419533,22.6060435021898,24.50232834053873,26.532664250536865,28.66009698581521
923.9885057471264,126.51441190475609,-0.43440023102359365,-1.4134549336945341,14.942528735632186,27.586206896551722,66.26765165517523,9.765289401054176,0.6021196517915702,-1.244047309104352,26.436781609195403,8.045977011494253,8.567413458028588,17.135093287328125,17.135892391879693,17.137224201928614,17.13908867117111,8.567413458028588,17.288001411815873,17.74446754942012,18.495144576421747,19.525198187837777,20.81447706646954,22.338097169834402,24.067148915646964,25.969498027721684,28.01064815088662,30.1546325171866
954.5727272727273,45.11086526868285,-0.7013184699928565,0.3055842726548059,14.545454545454545,16.363636363636363,63.00149686172931,3.0991941906389666,0.9658892712973652,0.7857296920439105,16.363636363636363,13.636363636363635,9.75282668908304,19.506017966716072,19.5071117180941,19.50893458948495,19.511486509532453,9.75282668908304,19.715262880827776,20.339380691230872,21.364020361178184,22.766350637030143,24.515394066693855,26.572964936682748,28.89480903715043,31.43190056677379,34.13184661625461,36.940347285297555
950.7123287671233,57.08500737653963,-0.053600976426617854,0.05320207759847273,19.17808219178082,8.21917808219178,63.34154623219086,3.863698431847216,0.49254595722613165,1.1026620459865057,8.21917808219178,19.17808219178082,7.542569908194198,15.085419678239765,15.086259253651715,15.087658512198164,15.089617403170786,7.542569908194198,15.246060597168698,15.725474819485212,16.513438440331868,17.59370811887858,18.944221431447822,20.53774032594767,22.34263103706004,24.323748813348054,26.443392735781735,28.662294744491483
951.4770642201835,42.19039334331651,-0.44986766742000567,-0.29934602581050296,16.51376146788991,18.34862385321101,63.18700282942092,2.8718882724472916,0.651058224265777,-0.08093388101867793,18.34862385321101,15.59633027522936,8.335851870810787,16.67201469499152,16.67294754427614,16.67450225700031,16.676678779040564,8.335851870810787,16.850514378725062,17.3833711312955,18.2596463483925,19.46194961887761,20.966598387417633,22.744251763747386,24.760684134170827,26.97767073762541,29.35395437077934,31.84626093002017
974.0983606557377,68.20165492872931,-0.11535771131520758,0.2637177880323818,18.0327868852459,11.475409836065573,61.90502310153528,4.449806692832595,0.6498846291495856,1.2796131432780555,11.475409836065573,16.39344262295082,6.960357914877269,13.92097298877107,13.921744457168701,13.923030208991774,13.92483020098239,6.960357914877269,14.06860084938228,14.509398735093106,15.234617657318738,16.230366881399064,17.477738829219465,18.953321865377387,20.62982333112181,22.47677867465937,24.461320246632546,26.54897851722655
944.328125,66.30282202881243,-0.17613298623527632,-1.0144848709952947,25.0,18.75,63.85753112849275,4.573038214788354,0.3838001252549462,-0.8477878861587107,18.75,23.4375,9.219368506600317,18.43904685789813,18.43997638068204,18.441525547626643,18.4436943021913,9.219368506600317,18.616895739793282,19.14763813190951,20.019871294627503,21.215464286748876,22.70976898993162,24.472320276166045,26.467688374430505,28.65645122028752,30.99625115841665,33.44289876895821
975.7,75.63757884367621,-0.66206842803375,-0.34053075974305,13.333333333333334,18.333333333333332,61.889523722329145,5.118216288341619,0.9574484300863884,0.16317251639768982,16.666666666666664,11.666666666666666,8.218102454571895,16.43646294256088,16.43723703414537,16.43852715789732,16.440333270484828,8.218102454571895,16.584593175775854,17.026895918966,17.75460679770806,18.753811399657337,20.00557020936824,21.486432917931563,23.169063775081263,25.02295396381083,27.0151945979352,29.11128298433
993.3714285714286,38.59984138700625,-0.18949060753169225,-0.2942629769069325,15.714285714285714,15.714285714285714,60.49261953765298,2.377146901077842,0.3865478131570133,-0.15080439977662063,15.714285714285714,15.714285714285714,9.25766804957314,18.51570567568056,18.516814389988237,18.51866219618457,18.521249017798144,9.25766804957314,18.727790503803213,19.360107357710998,20.397315865819063,21.815018210076506,23.580194178816807,25.65227787192884,27.984460071217853,30.525161156498804,33.2196137252878,36.011491567085294
987.4468085106383,50.934170493460954,-0.04507013708237312,-0.4429630539920191,18.085106382978726,14.893617021276595,60.92593310501679,3.1699818836404057,0.2909296393341019,-0.3027667612726521,14.893617021276595,18.085106382978726,9.47480575010877,18.94993241209969,18.950895135209485,18.95249963193756,18.954745839603987,9.47480575010877,19.134111094849697,19.683472384781386,20.585413396990017,21.819893664479192,23.35973937471341,25.171481510610285,27.216372406645238,29.45153962461284,31.831231732244532,34.3081086034118
963.8804347826087,44.47320697837518,0.3857422819064861,-0.034588061826448246,18.478260869565215,16.304347826086957,62.37936142982507,2.844281977613964,-0.12837946444436393,-0.04389804580688317,16.304347826086957,18.478260869565215,8.862061308772898,17.724427810474275,17.725343377730617,17.72686928472825,17.729005473824838,8.862061308772898,17.899595862363274,18.422209838482583,19.280662500671248,20.456496479737577,21.924651859752764,23.65420842066815,25.609287779735876,27.750080226478335,30.033957246253333,32.41662890443151
1021.9338842975206,44.032245047470575,0.08600960326899365,0.8363219238982165,9.917355371900827,10.743801652892563,58.82159225856618,2.545429613281393,0.2905750048516632,1.1090633353438548,10.743801652892563,9.917355371900827,7.718851006416171,15.438021774882637,15.438981049260484,15.440579800647424,15.442817970181258,7.718851006416171,15.621560336189924,16.169248468641523,17.069220302888706,18.30260901387407,19.843776024000196,21.66104834566162,23.71761517760441,25.97254912457563,28.381913738748914,30.899917377220333
1008.8285714285714,36.965996509754525,-0.08111334522147881,-0.14207716134430548,17.142857142857142,18.571428571428573,59.55532792665212,2.197206159274522,0.2934567277325355,0.0979596354376775,18.571428571428573,17.142857142857142,7.005224739138904,14.010735199032139,14.011592350666172,14.013020901293494,14.015020797771887,7.005224739138904,14.174731571636237,14.664069443768017,15.468045485777903,16.569651135912295,17.945802232118087,19.568029774640628,21.40331745670481,23.415051960425362,25.56404850148348,27.80961257669077
1020.1836734693877,69.10556062253313,-1.8094879168916533,3.5858233731809124,6.122448979591836,12.244897959183673,59.12632176840109,4.656447892291823,2.34350564164446,6.068950827492021,10.204081632653061,2.0408163265306123,8.764878184099594,17.530088182813724,17.53108361368259,17.532742621882168,17.53506514254226,8.764878184099594,17.720523854942858,18.288544023816982,19.221103762925065,20.49745479449248,22.089454643163215,23.96242631993063,26.076201578299656,28.38630597073276,30.845239532775306,33.403804909724855
972.3867924528302,53.89622641509433,-0.8194403463723807,1.9107325921837957,8.49056603773585,12.264150943396226,61.90535409237335,3.6571973776736955,1.4413618360437752,4.177907346953609,10.377358490566039,8.49056603773585,8.781205557060407,17.562718016781204,17.563638712731596,17.565173165880072,17.56732131607603,8.781205557060407,17.738855360334266,18.264218544014156,19.12672305863126,20.307170214720657,21.779564894775092,23.511948808210715,25.467404225244046,27.605183393512743,29.8819148811758,32.252836998228084
1007.7179487179487,38.96773729174426,0.37259099350313335,-0.21563739565278128,19.230769230769234,14.102564102564102,59.62857699574464,2.2812012765602656,-0.1864119834745095,-0.37572915440948895,16.666666666666664,19.230769230769234,7.630436637125717,15.2611499728343,15.26198005852856,15.263363501171671,15.265300250494507,7.630436637125717,15.419974441237338,15.893959236133686,16.67297345246331,17.740928592988933,19.075989076886852,20.651224176300158,22.435396724746223,24.39385560509159,26.489495899516307,28.683749484812527
968.6168224299065,70.14959247552682,-1.0799448591915763,0.7752439804764464,11.214953271028037,15.887850467289718,62.301985354938175,4.966802844226613,1.460049400364055,1.887638402205301,15.887850467289718,7.476635514018691,9.163338620511944,18.32700650994785,18.32799430458184,18.32964058851247,18.33194530105294,9.163338620511944,18.51600146556356,19.079967111148864,20.006672810817992,21.276676960184712,22.86357135211535,24.7347505653162,26.852345781879453,29.17428595185523,31.655445529479216,34.24883650163536
1040.2692307692307,38.89112781194713,-0.05304675025549328,-0.4416638660107717,19.230769230769234,14.615384615384617,57.75844292390366,2.1707842516562272,0.23006665446490598,-0.34704598412280063,14.615384615384617,19.230769230769234,9.171754506741989,18.343831892624554,18.34480051683971,18.346414846510417,18.348674815607446,9.171754506741989,18.529123295145844,19.081608537290947,19.988035242182708,21.227325673347245,22.770939382947557,24.583790977218353,26.62536098030591,28.850953304135455,31.213047989560714,33.6626957424665
987.7741935483871,61.475080891253775,-0.7539055734551026,0.4683372871580702,15.053763440860216,17.20430107526882,60.99258864254212,4.033754478289474,1.1599167842584357,1.7181163915306268,16.129032258064516,12.903225806451612,8.828009044751655,17.656394118806293,17.657522191301435,17.65940226074823,17.662034250081916,8.828009044751655,17.8721860069174,18.515603555542203,19.571177531394305,21.014296841479464,22.811624385409235,24.922158102143964,27.298516742866997,29.888397494552343,32.63614694182079,35.4843842372179
956.9764705882353,78.71302702118227,-0.9102205423916438,0.11448864569070993,12.941176470588237,21.176470588235293,63.16408638188756,5.7018213766973735,1.2635310267084445,1.080980069350776,21.176470588235293,10.588235294117647,9.730934849195888,19.462165958291056,19.46305472752638,19.464535974710742,19.466609647534263,9.730934849195888,19.63222691803378,20.139844422366895,20.97446150451144,22.119311910650257,23.551611547771355,25.243212798498625,27.161398957469174,29.26978741518918,31.529307062472316,33.89921408185824
1009.14,39.28028003973495,-0.29901857114817765,0.19965573851148566,14.000000000000002,16.0,59.548148376284374,2.35656785395785,0.544096545410773,0.35346313691164744,16.0,14.000000000000002,8.49376792163465,16.987847711974915,16.988783306916314,16.990342594567274,16.992525519052815,8.49376792163465,17.16686406542972,17.7011586260838,18.57945471711652,19.7838251553576,21.28988716037254,23.06748373791044,25.08151343915308,27.29287729912704,29.659508434268474,32.13744821035878
1017.6734693877551,57.72520680091365,-1.124038214865458,2.367966663474875,13.26530612244898,13.26530612244898,59.16368750330818,3.6471226182333467,1.7137029762638218,4.528297943744197,13.26530612244898,11.224489795918368,7.2715730741818785,14.543430032198462,14.544281672687081,14.545701036783825,14.54768806941431,7.2715730741818785,14.706359538173091,15.19236482331334,15.990375346430723,17.082801321256056,18.445813414691084,20.050096114680436,21.8617577621602,23.84335806937028,25.955010112889124,28.155512333857377
1028.715909090909,49.74547692176198,1.0654141160725155,1.7019047473626294,12.5,13.636363636363635,58.45586120685768,2.7109408023566672,-0.7049836224543271,1.0144583453007545,15.909090909090908,13.636363636363635,7.648918434694475,15.298102919676957,15.298901060933796,15.300231264338398,15.302093481857264,7.648918434694475,15.450816936679123,15.906585363273358,16.655720244521245,17.68282585893559,18.966980256767325,20.48233553981946,22.198846377325204,24.08309785257291,26.099200919998637,28.20972266745835
931.4713375796179,91.65780728920141,-0.2770034114342193,-1.002733164273854,19.10828025477707,22.29299363057325,65.06806701685657,6.676244939909223,0.560190403398051,-0.7123995491497954,21.019108280254777,16.560509554140125,8.549134544560351,17.098683026789523,17.099924821668505,17.101994419376464,17.104891729281633,8.549134544560351,17.336197459684687,18.044003938108094,19.20396495082397,20.787238890452944,22.754877991767,25.05917780240924,27.645301926852408,30.45310843601272,33.41909729697218,36.478395681529264
1026.6935483870968,57.55756969630001,-0.5657747408695122,0.37604286838029255,12.096774193548388,16.129032258064516,58.63162992504086,3.429132302680809,0.9155675581292607,0.8836752308615523,13.709677419354838,11.29032258064516,9.971989261859605,19.944292993418447,19.94523639016905,19.946808676930427,19.949009791970614,9.971989261859605,20.124772653768595,20.663080457215553,21.54680870315925,22.756231472966817,24.264614969173195,26.039054591819838,28.041489170520947,30.229850644674496,32.559303134674536,34.98352340837205
973.8357142857143,46.488494846157636,0.3451284997536809,-0.23449625511764216,16.428571428571427,15.714285714285714,61.750984301625444,2.9160627390590412,-0.11222106929374026,-0.35789926689992546,15.714285714285714,17.142857142857142,8.180632059761422,16.36154266632374,16.362378297027963,16.363770982540398,16.365720674370674,8.180632059761422,16.52143965929374,16.99876435209921,17.783726779686614,18.860784999871637,20.208818026855834,21.801730494360385,23.60918511047011,25.597432968692978,27.73020898132475,29.969658748565944
891.9615384615385,98.22168050237208,-0.7540994092613734,-0.3461242758688452,10.256410256410255,19.230769230769234,68.18283762200483,8.372748320043765,1.127740862885822,0.3514302006307841,17.94871794871795,7.6923076923076925,8.272863509140963,16.546005403239896,16.5468405497675,16.548232432825905,16.550181010684966,8.272863509140963,16.705846567190186,17.183446509922767,17.970312999460713,19.052961798532753,20.412939513905613,22.02723169110453,23.86876508187363,25.906989029323846,28.108519338653327,30.43782723924366
1012.3076923076923,58.16506302079469,-1.88599643733836,4.580749389044452,9.615384615384617,9.615384615384617,59.493542759623104,3.905010433256994,2.4763243462537394,7.530644973643247,8.653846153846153,3.8461538461538463,9.004923361076896,18.01017065734919,18.0111424504758,18.01276206415592,18.01502943609538,9.004923361076896,18.196089872109674,18.75070722837982,19.661491763045625,20.908523712226962,22.464789358748995,24.29701017305184,26.366647707284077,28.63104318938886,31.044646556935355,33.56028786090582
1054.2058823529412,71.92797844403096,-0.7472190285570965,0.34103510638656287,11.76470588235294,14.705882352941178,57.1980763374941,4.170074088116144,1.1452483112142762,1.3196465917460767,14.705882352941178,10.294117647058822,9.165723943447501,18.331733224113204,18.332589224708652,18.334015855504518,18.336013061208106,9.165723943447501,18.49549720847822,18.983995081627327,19.786105000020275,20.884140607365886,22.254111096593423,23.866453023314154,25.68691886832208,27.677587020252492,29.797954029499504,32.00606814903549
