976.8512396694215,43.408431438498475,-0.4537540326601169,-0.09859830696505467,14.049586776859504,17.355371900826448,61.54630751049068,2.805902684736916,0.6873889329587622,0.2512875222637194,17.355371900826448,14.049586776859504,3.93307301247427,7.866327100275648,7.866870316577145,7.867775644814164,7.869043036590944,3.93307301247427,7.970178620263614,8.279087202351793,8.783437173314239,9.467940481843145,10.312085638218633,11.29097251286165,12.376308276279717,13.537513200142602,14.74288055155652,15.96073369485928
975.0379746835443,101.4932114756693,-4.900959879476464,31.21570793351998,3.79746835443038,2.5316455696202533,63.47783157882982,20.38230095682049,8.114426158651579,66.73306360620387,2.5316455696202533,0.0,4.420668873530241,8.841562438236576,8.84223649900415,8.843359891081986,8.844932550671311,4.420668873530241,8.970408171256656,9.353416016373398,9.977931238173062,10.823828207749086,11.864139101060584,13.066184244751602,14.392919894337158,15.804433493206632,17.259510324205895,18.71719391957133
980.276923076923,60.078028158850394,-1.0668756671725885,0.8425232916453509,12.307692307692308,18.461538461538463,61.456084223308125,4.077461699888867,1.447611352406243,2.4408553042273073,18.461538461538463,7.6923076923076925,4.550228123052846,9.100695519250214,9.10141332465969,9.102609620262804,9.104284335944353,4.550228123052846,9.23789107919308,9.645576898518481,10.30986117179354,11.208656888027816,12.31240506230885,13.585348135351396,14.987045839981793,16.474053216656163,18.0016735612191,19.525697523309184
971.1287128712871,45.14852570783263,-0.3181028532961451,-0.13121190514050518,12.871287128712872,14.85148514851485,61.92015549855675,2.9392269296572238,0.5698301641179144,0.15244022803771706,14.85148514851485,12.871287128712872,3.931483924611206,7.863156954812176,7.863724261186371,7.864669737160633,7.865993330763576,3.931483924611206,7.971606169032007,8.294096605865194,8.820310315589127,9.533840589332804,10.412688384869648,11.43017074745355,12.556004660891263,13.75751052562822,15.000874521342313,16.252407817981545
908.792,200.5833211809995,-2.423493396142125,5.342303246725534,0.8,11.200000000000001,85.9341312072467,152.1068145198189,9.91562417127014,102.28898970921489,1.6,0.0,10.778499994535366,21.557511375109705,21.559045501758863,21.561602274617304,21.56518153635807,10.778499994535366,21.850691112996678,22.72140112077583,24.138497720921652,26.05242836317181,28.39688712437813,31.09168377693722,34.046162828292196,37.16299352365374,40.34213591710721,43.484783924889946
955.5238095238095,65.65587466138136,-0.3921814948579207,-0.9307165011497687,17.46031746031746,22.22222222222222,63.10034890781661,4.486318753770462,0.5870589023266263,-0.7048326913770406,22.22222222222222,15.873015873015872,4.135654683445991,8.271497698088103,8.272062681589897,8.27300428713822,8.27432246430363,4.135654683445991,8.379510129158351,8.700789045676295,9.225313716830383,9.93714852624174,10.814907054519068,11.832616771602309,12.960751016569661,14.167375404299632,15.419351176829233,16.68353686689958
987.1775700934579,50.27026268066843,-0.26255384716445374,-0.138025174732618,13.084112149532709,16.822429906542055,60.94026592649105,3.1675356032375834,0.53359065259922,0.01665787714898226,16.822429906542055,13.084112149532709,4.212674841889697,8.425556877272049,8.426178446121694,8.427214355444361,8.428664547102985,4.212674841889697,8.544372651754351,8.89761109045522,9.473737465660538,10.25440998963459,11.21504863257094,12.325863190105457,13.553079439647805,14.860299915525248,16.209930196104775,17.564600102818904
975.475,42.79514429231428,-1.2033310861166158,2.126389482395065,13.750000000000002,15.0,61.63446761265527,2.8799189001178114,1.5963259492366004,3.684023797007435,12.5,13.750000000000002,3.994351727558535,7.988892242010163,7.989458592093795,7.990402473581739,7.991723833499661,3.994351727558535,8.097152685573842,8.419010318040623,8.943956963445695,9.65528801332685,10.530626848645316,11.542868504396631,12.661303199556198,13.852860399568433,15.083409051895773,16.319048572881947
987.8518518518518,49.5857185510603,-0.5608652791525657,-0.11096795048603347,14.814814814814813,16.049382716049383,60.89639164574061,3.164980962863599,0.8042688082488166,0.25564932804620843,16.049382716049383,12.345679012345679,3.5306659708011328,7.061500189411314,7.062004923709568,7.062846117111052,7.064023723974728,3.5306659708011328,7.157991079602906,7.4449612666228004,7.913348924332818,8.548751460591872,9.331863377968846,10.239278504832491,11.244445594030637,12.318727126817132,13.432506882328148,14.556290897493637
964.3211009174312,45.33481573861347,-1.0765593971692928,1.3813576488554569,11.926605504587156,13.761467889908257,62.365910510343944,3.1132589620336986,1.406965875571312,2.315276301915822,12.844036697247708,11.009174311926607,3.964646344298535,7.929481253862048,7.930046939484586,7.930989714948366,7.932309529395322,3.964646344298535,8.037625916118369,8.359274267895465,8.884324356346859,9.596715055495542,10.474903516323963,11.492747722055029,12.620559478816375,13.826273641932534,15.076674596823155,16.3386197801173
933.1333333333333,55.461297817086425,-0.8508039860233326,-0.16764392231848735,14.666666666666666,20.0,64.54067210313575,4.0665614076058905,1.0618032884410884,0.32772037275008437,20.0,6.666666666666667,4.016888730158048,8.033951357571306,8.034473040353458,8.035342481712776,8.03655963673506,4.016888730158048,8.133694669903313,8.430485945394949,8.91539020369409,9.574199225644362,10.387826259382022,11.333059931028822,12.383464533068144,13.510380959488726,14.683978569772417,15.874307282974835
973.3394495412844,50.3592998952083,-0.35898369528171586,-0.4302596322451717,22.018348623853214,15.59633027522936,61.812737268687066,3.278842485132258,0.5985012990832709,-0.02135122889086638,14.678899082568808,20.18348623853211,4.3546118265995775,8.70940748265588,8.709958961098671,8.710878058745857,8.712164725963772,4.3546118265995775,8.814835800685366,9.128401324561155,9.640243061677424,10.33467719109642,11.190655695135186,12.182617973322515,13.281507394642578,14.455900821033065,15.673194565064872,16.900789078614974
946.1904761904761,32.096509795351324,-0.999829400462138,1.4559454426067733,17.46031746031746,17.46031746031746,63.488031214896935,2.239551619166273,1.2688866365694391,2.3537848681534257,17.46031746031746,15.873015873015872,4.2419408014635485,8.484064743403426,8.48461415517638,8.485529809278535,8.486811657433124,4.2419408014635485,8.589104371450018,8.901590771585294,9.411924540327512,10.104836669741168,10.959819355850733,11.951940611566743,13.052817971896635,14.231702357577614,15.456618751888225,16.695509096926692
953.3333333333334,31.65989902620042,-0.6791862020178844,-0.250445146173762,17.46031746031746,17.46031746031746,63.00826337236045,2.14556902179354,0.8125847391456609,0.019976040517824867,15.873015873015872,17.46031746031746,3.987714753056978,7.975611047494109,7.976155661941017,7.977063320374683,7.978333974330842,3.987714753056978,8.079730172255488,8.389438578190001,8.895107902518935,9.581432757249397,10.427883397332089,11.409545708717761,12.498122729368854,13.663045752257654,14.872638569393686,16.095277361558345
963.8032786885246,29.95560631844963,-0.033836301108201614,-0.8967967793723917,18.0327868852459,19.672131147540984,62.313691189505704,1.9419141678838108,0.13774700954452807,-0.8559233501547427,19.672131147540984,18.0327868852459,4.233415238745418,8.46702221134511,8.467597402376038,8.468556018988824,8.469898008528077,4.233415238745418,8.576978908468735,8.903954696271581,9.437496467088637,10.16098449704962,11.052137388357863,12.083934831555778,13.225717852565953,14.444409433390497,15.705793394673389,16.975788184372185
965.3472222222222,30.70747272526411,0.04142783754640012,-0.23853037105656627,13.88888888888889,18.055555555555554,62.21678545508765,1.9817610338442524,0.1255244414629972,-0.24421770037766288,18.055555555555554,13.88888888888889,4.364166297466069,8.728532924624906,8.729133902719665,8.730135496266424,8.731537650351315,4.364166297466069,8.843419777025915,9.185062894394175,9.742559448857595,10.498573060579373,11.42985703581129,12.508212964745388,13.701634066622308,14.97557418585064,16.294278153545726,17.622107918967945
966.6701030927835,48.931621055965735,-0.7777113432019522,0.029872597731697592,13.402061855670103,17.525773195876287,62.23539152095843,3.298516663566077,1.000174127758322,0.4447493002060878,15.463917525773196,10.309278350515463,3.9143286455040074,7.828835658180425,7.829370750116373,7.830262538072564,7.831510974145899,3.9143286455040074,7.931132705436844,8.235402236437242,8.732127570688872,9.406177216566476,10.237250829274602,11.200706401587116,12.268547021562098,13.410516337640866,14.595247444800306,15.791408828612429
948.4301075268817,42.74314328448366,-0.4370526026672138,-0.8446396222778962,15.053763440860216,20.43010752688172,63.39404682004902,2.9232231247536533,0.5689507758650504,-0.7080997217335563,20.43010752688172,13.978494623655912,3.8756294170624814,7.751433403774951,7.751957103570494,7.752829906049106,7.754051765442025,3.8756294170624814,7.851558634988818,8.149441536354843,8.635981342372931,9.296705578786447,10.112179905799744,11.05878301247499,12.109631981503751,13.235611096593043,14.406452926355454,15.5918194580871
981.5793650793651,37.31788650989133,-0.025433921801121945,-0.5742912751110221,17.46031746031746,17.46031746031746,61.21472646389284,2.336731817014562,0.18731947020533188,-0.5543637748291781,17.46031746031746,17.46031746031746,4.184137378718201,8.368469205779125,8.369052540019869,8.370024727797253,8.371385715178203,4.184137378718201,8.479979694262845,8.81154103284676,9.35245035622115,10.085692077698992,10.988462852694008,12.033124097294959,13.188337123579826,14.420321599122309,15.694172901039202,16.97517271694975
979.7571428571429,52.66997944459327,-0.7346086685762697,0.8511634687834397,20.0,12.857142857142856,61.42585948619714,3.4766800221105156,1.1472806164808733,2.0141737595497258,12.857142857142856,17.142857142857142,3.845193907716389,7.690566238040194,7.691101496394646,7.691993562093359,7.693242387800653,3.845193907716389,7.792898283233888,8.097310034746707,8.59439239506273,9.269181752625867,10.101589606015342,11.067208874732508,12.138276893330948,13.284746182798829,14.47540974120713,15.679026428044974
964.504761904762,49.48171837673727,-0.7310734902874206,-0.16364433111357624,14.285714285714285,16.19047619047619,62.37930452430821,3.3435478516447876,0.9446102425926597,0.3118134897492211,14.285714285714285,13.333333333333334,4.062406996954237,8.125010951251845,8.125601812565193,8.126586545698995,8.127965097073332,4.062406996954237,8.237966052969739,8.573891487673631,9.122145890648548,9.865806815793158,10.7821741976845,11.843698806262184,13.019090511884421,14.274549633513503,15.575059587035376,16.88567768808257
962.3084112149533,41.807617070807964,-0.48929254955584156,-0.41994630902084573,15.887850467289718,17.75700934579439,62.47086710429339,2.7840839945411764,0.6711497493427453,-0.12987277517210094,17.75700934579439,15.887850467289718,3.8475712717248944,7.6953229091223845,7.695863996525195,7.696765776813933,7.6980282019172215,3.8475712717248944,7.798768164597197,8.106477131143828,8.608897482445062,9.290841343701084,10.13192882058172,11.107414639822094,12.18917429112663,13.346798881651834,14.548743504745008,15.763472864411824
979.9746835443038,35.898582420989335,-0.29452096355849905,-0.6920729042647866,20.253164556962027,18.9873417721519,61.30937894882576,2.2760345379461207,0.4283747651319654,-0.6165556294458767,17.72151898734177,17.72151898734177,3.8243896291109105,7.648971744395931,7.6495491923326115,7.650511570275724,7.651858825300984,3.8243896291109105,7.759359543792977,8.087613216957264,8.623226857021871,9.34949726981096,10.244033003569932,11.279683737110725,12.425648776345222,13.648707323387407,14.914508111591923,16.188854680005598
980.1603773584906,45.29736899195637,-0.3029515993345505,-0.14532062584259897,15.09433962264151,16.037735849056602,61.34787200804218,2.892141864097243,0.5518028723512874,0.11287001587247092,15.09433962264151,15.09433962264151,3.949270360398391,7.8987315521228645,7.899304035642121,7.9002581399783445,7.901593812840403,3.949270360398391,8.008171301379205,8.333617395824103,8.864687327833279,9.584871468409679,10.472030443836985,11.499307251890441,12.636215765220706,13.849849726805267,15.106151366827822,16.37117743592551
946.8601398601398,43.55875405157836,-0.2690136250959375,-0.4388596618808118,15.384615384615385,16.783216783216783,63.50385013622333,2.9724011053944444,0.47877765068095074,-0.23451925840265053,16.083916083916083,13.986013986013987,4.017177572472076,8.034532328130311,8.035063868306818,8.03594973732839,8.037189888288559,4.017177572472076,8.136154071955417,8.43845948263381,8.932124363370866,9.602320614027455,10.429141283262437,11.388398905356883,12.452578547156602,13.591896935166172,14.77541478252623,15.972148378332227
971.3789473684211,57.75413932713639,-0.6239022262175742,0.40355249139132354,12.631578947368421,14.736842105263156,61.99719296550068,3.8715150800970335,0.9897489510456573,0.9802107863069955,13.684210526315791,10.526315789473683,3.6748701452881543,7.349914478441959,7.3504370327544,7.351307925660671,7.352527110741447,3.6748701452881543,7.449816604041829,7.74698661197776,8.23220126338135,8.890797776581303,9.703104550336676,10.645242488506193,11.690080662519984,12.808296901656515,13.969489620692132,15.143286177404375
974.3928571428571,35.87014206602387,-0.7710736907167374,0.5562435874178289,10.714285714285714,17.857142857142858,61.663055846604074,2.3462556064669506,0.9987529036279061,1.0987347577986242,15.476190476190476,9.523809523809524,4.271193525352725,8.54259147016965,8.543204717225509,8.544226757863733,8.545657535404922,4.271193525352725,8.65982021390105,9.008385278214426,9.577038687985931,10.347898293337343,11.296999374519652,12.395295720196112,13.60985275621115,14.905170452485574,16.244568301231418,17.591563330205624
977.3203883495146,40.149046003545536,-0.304591392439012,-0.16197672658557272,16.50485436893204,13.592233009708737,61.497776019924615,2.570137700530545,0.5269419674762686,0.115203443732526,12.62135922330097,14.563106796116504,3.935470094086286,7.871118078111329,7.871651738380946,7.872541140342227,7.873786236265453,3.935470094086286,7.973141669656818,8.276600686900888,8.772011461412953,9.444292445523187,10.273204638050228,11.234171148652818,12.29925541723715,13.438248026329742,14.61980764165139,15.812600492980112
962.0096153846154,45.31863583227351,0.10026047890976612,-0.7141878499745191,17.307692307692307,16.346153846153847,62.50789403775744,2.943249663136561,0.08042143108318116,-0.7077216073591188,16.346153846153847,17.307692307692307,3.934728816692394,7.869645911482605,7.870210735686795,7.871152075730242,7.87246988117025,3.934728816692394,7.977627739113374,8.29881389042104,8.823181812552203,9.534794441369867,10.412266754273398,11.429633645489881,12.557385648113414,13.763619372839628,15.015244851790866,16.279190774346457
942.8775510204082,45.67325509241916,-0.19021005699664556,0.4939503013206634,14.285714285714285,14.285714285714285,63.78692018497294,3.1452878862642932,0.5335821046186542,0.5416366433987623,12.244897959183673,14.285714285714285,3.838901220848138,7.677989064480259,7.678548922795032,7.679481986529693,7.680788205501829,3.838901220848138,7.785020523353084,8.103367860098206,8.623061855097028,9.328251254633683,10.197670490922999,11.205506857379007,12.32243530444383,13.516767710099554,14.755658796594265,16.006309661875164
940.4038461538462,38.68209995594825,-0.0028751790560471147,-0.6678181933313585,17.94871794871795,16.666666666666664,63.91076960670945,2.6381701743567914,0.1691126048282383,-0.6125031285915199,16.666666666666664,17.94871794871795,4.095481074006572,8.191157649975828,8.191744145173134,8.192721601533625,8.194089965607427,4.095481074006572,8.303276629612357,8.636698190119501,9.180810332008535,9.91874141900408,10.827870997560836,11.880765484938115,13.046294074528307,14.290867083624754,15.579733880451546,16.87827622720898
943.0592592592593,43.26349294351446,-0.22646962114536398,-0.3587945020331147,17.037037037037038,14.814814814814813,63.75878902544146,2.9711147603672954,0.45346053154419114,-0.10189157619195388,14.814814814814813,16.296296296296298,3.838794564599033,7.677767874166754,7.678304099654356,7.679197777406008,7.680448860332553,3.838794564599033,7.780286637180186,8.08527582230259,8.583374671317694,9.259699719002349,10.09427255557623,11.062823789955274,12.137752733611556,13.289193749810977,14.48613589635434,15.697541386724742
987.7642857142857,66.86111519029424,-2.5730421767257825,10.129571590542051,3.571428571428571,10.0,61.096982229443995,5.350765643042632,4.455393759734294,29.604161143707216,9.285714285714286,0.7142857142857143,5.033915150782664,10.068156776229266,10.069136179713041,10.07076845049424,10.073053486040923,5.033915150782664,10.255314548088181,10.811015100842758,11.71498419771085,12.934987751106638,14.427964708024819,16.14195618792851,18.018399165419634,19.994661182514868,22.00668197856852,23.99158555019552
983.0142857142857,48.29714361774051,-0.04012715661272464,-0.5106296108015091,17.142857142857142,14.285714285714285,61.18528613357695,3.0288252591040528,0.2677698621925057,-0.3320488786621629,14.285714285714285,17.142857142857142,4.00045773471097,8.001105730129678,8.001676501901585,8.002627753684472,8.003959433725509,4.00045773471097,8.110220336527991,8.43472445703809,8.964338338880545,9.682711875649277,10.567907289024602,11.593291620588108,12.728602831069875,13.941135417588958,15.196986568191265,16.46230247511718
969.3761467889908,45.75659354718916,-0.45795605777113046,-0.06339408043560102,14.678899082568808,18.34862385321101,62.03733752654844,3.0117347946684183,0.7239837699029298,0.5363221429259477,18.34862385321101,14.678899082568808,3.860445670024002,7.721067358233743,7.7215954032410155,7.722475446420682,7.723707440026547,3.860445670024002,7.822014607269984,8.122238296485213,8.61225701594468,9.276997759498652,10.096249231573852,11.045495222883684,12.096908000498427,13.220450008131527,14.385027706670302,15.559640341307363
973.0958904109589,38.151164503515375,-0.7600204129073531,0.2374428706012237,12.32876712328767,16.43835616438356,61.756983106158124,2.5056542759851705,0.9604149170987262,0.6194353056248816,15.068493150684931,10.95890410958904,4.225593845664239,8.451378226891926,8.451949823219858,8.452902449225856,8.454236053101738,4.225593845664239,8.560650572640847,8.885625248085155,9.416012863203779,10.135451189916546,11.02199216123159,12.048999606534633,13.186220230351976,14.400972663594342,15.65939459340535,16.92768678053568
