406.0,177.56559820716024,0.8611243275784123,0.77519237371637,14.930555555555555,14.23611111111111,183.76462045352304,114.95754116867371,4.9474355847176446,43.30084297902577,9.027777777777777,1.0416666666666665,0.009110946160537267,0.01822218047743976,0.018223044932513973,0.018224485644233405,0.01822650254249547,0.009110946160537267,0.018387483930458803,0.018879639149026767,0.019684692129144126,0.02078049957168405,0.022137355468221046,0.02371920407606123,0.025485088427160806,0.02739076047520815,0.02939037219806533,0.03143816493372535
419.494623655914,187.1428712833331,0.9844281172930991,1.8065630745904526,12.903225806451612,12.903225806451612,183.26769801208877,130.5872303169579,4.081457645158495,22.38487338192621,6.451612903225806,0.0,0.009386876536256035,0.01877407768783307,0.0187750515187356,0.018776674520039154,0.018778946616446388,0.009386876536256035,0.018960316376278322,0.019515042645139903,0.02042323795688452,0.021661059024415737,0.02319644833322255,0.02499037602769702,0.026998326150395678,0.029171953650901666,0.03146083174765402,0.03381420707638207
418.82236842105266,166.27557587100006,0.6397264522587259,-0.12129560133674211,17.763157894736842,14.473684210526317,169.56681226229435,77.82740772862917,1.9585484534491084,6.740800458494148,11.842105263157894,9.210526315789473,0.006551639402259872,0.01310354543950638,0.013104345332344801,0.013105678446671645,0.013107544721884103,0.006551639402259872,0.013256526454139243,0.01371227481653177,0.014458700952462298,0.015476627499400649,0.016740284656589347,0.018218320229298268,0.01987500530286511,0.021671573947818934,0.02356762997865419,0.02552255246599043
419.0560344827586,183.01060209951333,0.6304652233638196,0.21051309867494084,16.379310344827587,16.379310344827587,180.32029520662527,108.86736209723036,2.8279186636866087,11.644268242976477,8.620689655172415,2.1551724137931036,0.008144010728621741,0.016288290452799715,0.01628909742660589,0.016290442340075012,0.016292325128898548,0.008144010728621741,0.01644260836728895,0.016902130378843545,0.017654042840721283,0.01867800102919612,0.019946674910748263,0.021426832046320697,0.02308063494391061,0.02486708934162791,0.02674357371609461,0.028667378058311047
434.62357414448667,199.53618970802032,0.8277622216643418,1.0407201453353867,14.068441064638785,14.44866920152091,255.82644596239413,1229.0308023498606,15.771892003447483,250.25873936674088,0.7604562737642585,0.0,0.008203813060354611,0.016407900196184814,0.01640872241017498,0.0164100927253705,0.016412011079592587,0.008203813060354611,0.01656515081312291,0.01703362705612438,0.017800930199036162,0.018847406367423845,0.020146672457067142,0.021666676429874288,0.023370962624748488,0.025220076965408428,0.027173041033517822,0.029188822280816255
417.513698630137,184.0471662411259,0.5483758158250072,0.0800231693333946,17.123287671232877,15.753424657534246,184.9029832572401,120.17692382212844,2.716406175876527,9.79015877617256,8.904109589041095,1.36986301369863,0.0068476595891004055,0.013695555541297557,0.013696264619512169,0.013697446379618644,0.013699100766242962,0.0068476595891004055,0.01383115904889617,0.014235028951615998,0.014896128126093642,0.015796942285028332,0.01691394800538688,0.018218548310743113,0.019678192485544845,0.021257624630451936,0.022920200153725284,0.024629207555832432
433.9291666666667,196.9560631612346,0.902769288161534,1.2750960119412822,14.166666666666666,13.333333333333334,178.9227648332393,132.29913934402853,4.86123338374881,35.92220858471197,8.333333333333332,0.0,0.009248628229698894,0.018497587594061126,0.018498580983743077,0.01850023658552067,0.01850255432785866,0.009248628229698894,0.018687595631125913,0.019253896608320095,0.020182191581888994,0.02144979788157685,0.023026182505569114,0.02487411235474395,0.026951034297470106,0.02921061895887977,0.03160439566885585,0.034083403616294805
400.4329896907216,173.10975644850203,0.82266300520928,0.5904044905577019,15.463917525773196,13.917525773195877,184.9458929473809,105.07568428227827,2.9241218411748067,12.788863075887155,9.793814432989691,4.639175257731959,0.008832633357631728,0.01766552081974041,0.017666283122010826,0.017667553588594766,0.0176693321636946,0.008832633357631728,0.017811323288302414,0.018245815505080084,0.018957861011255274,0.019929815041693708,0.02113798160298134,0.022553555794332967,0.02414374795227908,0.025873031644056466,0.02770445242303453,0.029600932952486517
416.5103092783505,181.4302637802422,0.5621369707843505,0.24427934449205546,16.49484536082474,15.463917525773196,184.599641941372,120.36917501202139,2.756864751937869,9.519910537807819,9.278350515463918,0.5154639175257731,0.009607669842634834,0.019215682757438724,0.01921671195850156,0.019218427242125562,0.01922082853109354,0.009607669842634834,0.01941252352910331,0.019998983628380408,0.0209596403926128,0.022270000503069834,0.02389708257826878,0.025800648479613393,0.027934680249996506,0.03024903178371473,0.03269117753802879,0.03520797823445067
410.1023622047244,176.35396736519314,0.3004831998366106,0.0015194155490303451,14.173228346456693,14.960629921259844,232.90128069682817,635.7472126463457,14.342788052526283,216.44976933339782,1.574803149606299,0.0,0.008876685849842915,0.017753634648795126,0.01775442348404836,0.017755738169222574,0.01775757864394902,0.008876685849842915,0.017904497582279643,0.018353896577961062,0.019089796014008995,0.020093110550942615,0.021338216634597344,0.022793980119400856,0.024424984599156842,0.02619289859704985,0.028057914055270358,0.029980186802414863
436.0700636942675,178.67121406200508,0.7999526790917574,0.5643640652779975,15.92356687898089,14.64968152866242,165.0390825093238,81.38868080353276,2.1887224765595237,7.639985257626591,13.375796178343949,8.280254777070063,0.007554366845782121,0.015109019993403616,0.01510987888609724,0.015111310331172058,0.015113314264509278,0.007554366845782121,0.015273290049350024,0.015762731804419398,0.016564541308636115,0.01765839511412643,0.019016944070027172,0.020606849567584084,0.0223900241472603,0.02432501543173817,0.02636846673026041,0.028476585941468315
437.1476793248945,177.26311025796525,0.7045165084345699,0.5007336039667853,16.033755274261605,16.455696202531644,164.58721387619127,80.25506322414866,2.0641647949523336,7.5944092202212214,14.345991561181433,6.329113924050633,0.007405746866724734,0.014811763283868407,0.014812571923081656,0.014813919614959512,0.014815806299288654,0.007405746866724734,0.014966422822990372,0.015427241414712417,0.016182204703232506,0.017212266909722964,0.01849184533573199,0.019989833333455876,0.021670809736481004,0.023496383047553686,0.025426603186102764,0.027421372130282923
427.0642857142857,181.84633272213603,0.7591743220126527,0.8603256703952669,15.0,14.285714285714285,178.5246243418128,130.04315763470782,4.744804417113792,32.230640415918096,7.142857142857142,0.0,0.007933659219395116,0.015867545677838955,0.01586822738478909,0.015869363529053323,0.015870954059655204,0.007933659219395116,0.015997927113276987,0.016386393999571335,0.0170227825394837,0.017890993641000306,0.0189694320682679,0.020231888372131294,0.02164858923594522,0.023187360899870838,0.024814845546564733,0.0264977094266143
415.51020408163265,186.93333845285173,0.6238628394767043,0.12140680366134582,16.3265306122449,16.3265306122449,186.91177300596408,126.21506740124924,3.325925657542672,16.594739958901208,8.843537414965986,0.0,0.011751223853058894,0.023502835032941764,0.023503996995941346,0.023505933542700544,0.02350864458586311,0.011751223853058894,0.02372506633575163,0.02438716249347341,0.025471678614990247,0.026950913367385206,0.02878757629897177,0.030936192017895478,0.033344786539645836,0.035956775942601715,0.03871296942980011,0.04155359569231298
431.0071942446043,207.13942395265343,0.4770082439901811,-0.4221620133589954,20.14388489208633,17.26618705035971,187.92310551918072,129.0137574424315,2.4472557006868976,7.993606957630464,11.510791366906476,0.7194244604316548,0.00906020799825168,0.01812068724893323,0.018121500994559385,0.018122857198392437,0.018124755802119443,0.00906020799825168,0.018276335918356885,0.018740252091064138,0.01950078883055197,0.020539495385269054,0.021831580634795286,0.02334688675132164,0.025051051094849733,0.026906796767382887,0.028875287085943464,0.03091747800144424
422.36196319018404,190.4430682229802,0.9506437444957319,1.0789548174837709,15.337423312883436,13.496932515337424,181.13101282792866,140.7106621905331,6.862889362819731,65.18066018127233,6.134969325153374,0.0,0.008973632518776961,0.01794752867080753,0.017948319558201836,0.017949637662638008,0.017951482922287734,0.008973632518776961,0.018098776940583757,0.018549237789392114,0.01928659017435116,0.020291287058691248,0.021537085184793935,0.02299209851163057,0.024620058419425078,0.026381717714255536,0.028236329402777944,0.030143129086984872
416.2522522522523,186.93196085855104,0.63130817131779,0.3132600928177349,16.216216216216218,14.864864864864865,192.95321736161824,191.03144667682872,7.041279863959829,60.405756304991144,3.6036036036036037,0.0,0.009368492683197591,0.01873732766007134,0.018738354526059275,0.018740065919238626,0.018742461764412216,0.009368492683197591,0.01893373194331259,0.019519013911400963,0.02047815037934486,0.02178730463105366,0.023414397291227542,0.02532031894368415,0.02746038128366697,0.029785935088303836,0.0322460768079368,0.03478936372275395
424.0190476190476,186.73326945914727,0.6498105236732113,0.4071993024866578,15.714285714285714,17.142857142857142,177.93094390228376,98.82936665513229,1.6916129937023012,2.9100014214200396,14.285714285714285,5.714285714285714,0.009564249841515889,0.019128785344482466,0.01912964231627469,0.019131070560730025,0.019133070015053995,0.009564249841515889,0.01929269449671523,0.019781140102587753,0.020581587927922147,0.02167417463803037,0.023032218227568714,0.024623273783840854,0.026410394488090343,0.028353533725328343,0.0304110183202316,0.03254102119807851
425.3771626297578,191.547729009861,0.7627284633441227,1.156735307270738,13.148788927335639,15.570934256055363,249.36255484049474,1170.077381190595,16.643187749094345,277.9118985574161,0.34602076124567477,0.0,0.0073266700292728346,0.014653629019241107,0.014654495888275729,0.014655940626495452,0.014657963168646546,0.0073266700292728346,0.014819421680043212,0.0153133656510276,0.016122444013390243,0.017226016825495464,0.018596360895598536,0.020199769460561096,0.02199786667965869,0.02394907075302164,0.02601013333805779,0.02813768102691464
407.82456140350877,175.66912573334776,0.3000203367674798,0.17180578656239742,12.280701754385964,13.450292397660817,265.1389854023217,915.322684182172,12.339069357837896,155.0048433094317,1.1695906432748537,0.0,0.008541608037699237,0.017083493280365715,0.01708432488256799,0.017085710843907746,0.01708765110089222,0.008541608037699237,0.017242536107212856,0.017716311502312676,0.018492158971482903,0.019550000228421023,0.020862872357614807,0.022398003341250004,0.024118097981311426,0.0259827695322812,0.027950046216636545,0.029977879739255874
408.78367346938774,201.62061295953617,0.4676809760409625,-0.22482155009615523,17.959183673469386,17.551020408163264,214.4933175286121,202.42158323467183,3.836083410327388,18.796561754861635,7.755102040816326,0.0,0.00956247305010144,0.019125280819785557,0.01912628496291584,0.01912795848274175,0.01913030130118005,0.00956247305010144,0.019317314100879758,0.019889270864212914,0.02082557929066077,0.022101516000601226,0.023683843673172063,0.025532103762378106,0.027600165845256243,0.029837958168833084,0.032193296580757445,0.03461372630831493
449.50655021834064,204.80512880977605,0.694916931161133,0.616533394790252,13.973799126637553,14.41048034934498,174.40126834281133,119.77584034693787,2.9003988205764712,10.329963575675167,9.606986899563319,0.8733624454148471,0.00936569755317014,0.01873169742465237,0.018732604365460363,0.01873411588638059,0.018736231916776792,0.00936569755317014,0.018905141041106247,0.019421723152141364,0.020267363296579327,0.021419718040516424,0.02284877565313488,0.024518047490761658,0.026385993934923004,0.028407614149088045,0.030536122106963017,0.032724628955860834
435.5833333333333,189.56089244473515,0.3444688820465496,-0.42419462459404267,14.444444444444443,17.77777777777778,182.63100106296616,146.24456713662212,4.015611818768615,19.983794543067965,6.111111111111111,0.0,0.01023432535794667,0.020468983460374037,0.020469981678367197,0.020471645323527052,0.020473974318614176,0.01023432535794667,0.020659885715986436,0.021228499492203616,0.02215942310727491,0.023428213671007187,0.025002026413325423,0.026840905910701755,0.02889933176185114,0.031127942256012696,0.033475352259575694,0.035889979020264313
423.32244897959185,189.28850161323086,0.9983638547394914,1.826910389281454,16.3265306122449,11.83673469387755,179.8805184849699,115.70236461870688,3.0620166334755186,12.17843790462392,6.938775510204081,2.0408163265306123,0.009286612875887125,0.018573567695935912,0.018574593511750465,0.018576303149208044,0.018578696524962864,0.009286612875887125,0.01876972612945838,0.019353735160136873,0.020309007161094576,0.021609222601516074,0.023219081258757743,0.025095751739730974,0.02719060238421415,0.029451125145941396,0.03182295588275335,0.034251891985544444
418.79813664596276,170.7175383044363,0.4460200809454774,-0.15617408542784128,18.32298136645963,14.906832298136646,179.56500866906808,124.05445549308214,4.858195596121061,38.1861630015038,8.074534161490684,0.0,0.008422259619697985,0.016844784478674133,0.01684558018462983,0.016846906321627796,0.016848762830278433,0.008422259619697985,0.01699696964599507,0.017450406015188057,0.018193240016277094,0.019206670490326594,0.0204654249802503,0.021938744459161223,0.02359156170013336,0.025385814791237624,0.027281831790510278,0.02923972070378699
418.7603686635945,193.16316184239594,0.623082999532702,0.6250243976951215,15.207373271889402,15.207373271889402,194.8833887402184,161.52420050135527,4.064343271478524,22.711718731117532,6.451612903225806,0.0,0.007584760152762052,0.01516975778771696,0.015170470224187731,0.015171657584613885,0.015173319818460256,0.007584760152762052,0.015306031443761317,0.01571223357365756,0.016378265186609196,0.017288124698980875,0.01842029815720961,0.019748592125933037,0.021243129218810115,0.02287145612215305,0.02459970933704878,0.02639378245704316
418.4642857142857,184.33159381829213,0.6439215237420942,0.4981828350969244,15.816326530612246,18.367346938775512,183.58050774635703,120.40262460895,3.0596269698136433,12.39433880471734,7.653061224489796,0.5102040816326531,0.007216453569232879,0.014433162729247334,0.01443392949105684,0.01443520739228917,0.01443699638027158,0.007216453569232879,0.014579837017824313,0.015017153121889936,0.015734564755875667,0.016715347170501105,0.017936958433354595,0.019371859020943235,0.020988493395522993,0.022752385634696556,0.024627296883988816,0.026576391206265464
415.400826446281,197.84105524337676,0.7631476005219557,1.1701728819679706,14.049586776859504,14.049586776859504,198.54307184379005,156.84007311952794,2.9578592900187735,10.258421559288719,8.677685950413224,0.0,0.008295193071979743,0.016590651444985904,0.016591447335738203,0.01659277377923635,0.016594630713850065,0.008295193071979743,0.01674285977428732,0.017196218774512752,0.017938443614254014,0.018950046869009612,0.02020486105710284,0.02167108377360311,0.02331252651198779,0.02509000397053799,0.026962794807683762,0.028890103031206586
422.88085106382977,176.41518562307675,0.5967789805962724,0.38766513267220315,14.893617021276595,16.595744680851062,185.0201999959901,186.44158458360832,8.322782419851057,88.07093297609586,4.25531914893617,0.0,0.007352230657813068,0.014704740815667307,0.014705579303456975,0.014706976741994157,0.014708933069613564,0.007352230657813068,0.014865113367138881,0.015343004161791398,0.016126096873554725,0.01719485279130118,0.018522987188703162,0.020078473054180458,0.02182474219722579,0.023722024235469104,0.025728758498969894,0.027803012227556406
409.4045454545454,179.41869512722752,0.7156142753547369,0.28883810080159167,14.545454545454545,13.636363636363635,187.18610286295979,141.23542537784937,5.687377203652374,46.3489709389474,5.454545454545454,0.0,0.011148644897623008,0.02229771458748654,0.02229898894489484,0.02230111280953241,0.0223040860848394,0.011148644897623008,0.02254143776890597,0.023267515546504785,0.024456672134364234,0.026078301432114398,0.028091217349575863,0.030445215233469155,0.03308294197203627,0.03594198321957056,0.03895706766760636,0.04206228559223969
420.6127167630058,193.2504298168858,0.5793405214630477,0.24635997990687386,16.473988439306357,15.606936416184972,194.9815340364605,185.04810311392544,6.486515513541925,60.050697948225626,6.358381502890173,0.0,0.008277450152150742,0.01655520021429864,0.016556099930725036,0.01655759941288593,0.01655969859296046,0.008277450152150742,0.016727274573120624,0.01723992746589709,0.018079631993079867,0.01922494275485303,0.020647062341249457,0.02231099041751858,0.0241768963140997,0.02620164537935105,0.02834040295411764,0.030548237904981224
404.00967741935483,196.58855815298645,0.7407131052714477,0.4221083517535775,16.451612903225808,13.548387096774196,203.54166696069598,175.01774607178248,5.651185987606675,50.49383178037864,7.741935483870968,0.0,0.010412786763302824,0.0208259722730632,0.02082716849395651,0.020829162133848816,0.020831953100349784,0.010412786763302824,0.021054742108192484,0.021736156105963224,0.022851774186295252,0.02437229583215438,0.02625827493553144,0.028461603191471684,0.03092729286462227,0.03359547543253857,0.03640352419719962,0.039288205579879665
441.8273615635179,187.14221325234595,0.556502998972372,0.31669222764808636,15.309446254071663,16.286644951140065,365.12160152414157,3411.3903903791643,17.400690986322676,301.18474768834045,0.32573289902280134,0.0,0.008548381504030146,0.017097029690404563,0.01709782972529009,0.017099163076275688,0.017101029682628832,0.008548381504030146,0.017250037208841426,0.01770585593300894,0.018452364318184394,0.019470318980733353,0.020733833073985422,0.02221136696836845,0.023866915875598742,0.025661336874122396,0.027553752248115407,0.02950296409273246
399.30857142857144,173.91776935655307,0.8977335648182824,1.047530490152595,14.285714285714285,12.571428571428573,186.35657433530034,111.08061733290732,3.584687548604812,20.71119867245868,8.571428571428571,2.2857142857142856,0.01103422783602799,0.022068821848692143,0.02206992036016485,0.022071751151167666,0.022074314129527893,0.01103422783602799,0.022278865285182116,0.022904019778886755,0.023925947759348906,0.025315523110220804,0.027033660907292284,0.029032907449904343,0.031259345927772055,0.033654724651251924,0.036158705374580095,0.038711125488573334
418.316,186.8505931058288,0.6737435559276734,-0.006935791419374393,16.0,16.400000000000002,186.57775957206863,163.9033136395731,7.505613563420379,75.32331209444249,4.3999999999999995,0.0,0.007989218814060839,0.015978701412556934,0.015979492753380634,0.01598081161314746,0.015982657929451367,0.007989218814060839,0.016130033427549463,0.016580707903595938,0.017318291054826417,0.018323053373884183,0.019568506585802326,0.021022466527118755,0.022648324211514397,0.024406461398523933,0.026255740992271268,0.028155000641387318
423.0473372781065,177.5691818059357,0.3323150012182315,-0.30537061950554545,19.526627218934912,14.201183431952662,183.84039419787817,134.18056289145446,3.3234438704467832,13.13542836807122,7.6923076923076925,0.0,0.009887717643075746,0.01977573736562288,0.01977664359029834,0.01977815391896268,0.019780268282927164,0.009887717643075746,0.019949054385798966,0.020465384404108725,0.021311027523379204,0.02246425790872356,0.023895894640933307,0.02557046013783228,0.027447564987459587,0.029483449478296286,0.03163260558196274,0.03384940104942152
